Points,Elapsed Time ,Load 2 
      ,Sec          ,N      
1,0,-0.485
2,0.0002,-0.009
3,0.0004,0.228
4,0.0006,0.073
5,0.0008,0.143
6,0.001,0.106
7,0.0012,0.165
8,0.0014,0.129
9,0.0016,0.127
10,0.0018,0.123
11,0.002,0.146
12,0.0022,0.175
13,0.0024,0.044
14,0.0026,0.181
15,0.0028,0.159
16,0.003,0.074
17,0.0032,0.138
18,0.0034,0.175
19,0.0036,0.119
20,0.0038,0.089
21,0.004,-0.182
22,0.0042,-1.104
23,0.0044,-1.273
24,0.0046,-0.9
25,0.0048,-0.844
26,0.005,-0.224
27,0.0052,0.26
28,0.0054,0.063
29,0.0056,0.064
30,0.0058,0.228
31,0.006,0.114
32,0.0062,0.073
33,0.0064,0.17
34,0.0066,0.182
35,0.0068,0.056
36,0.007,0.166
37,0.0072,0.151
38,0.0074,0.1
39,0.0076,0.142
40,0.0078,0.119
41,0.008,0.146
42,0.0082,0.127
43,0.0084,0.131
44,0.0086,0.123
45,0.0088,0.131
46,0.009,-1.135
47,0.0092,-1.119
48,0.0094,-1.062
49,0.0096,-0.929
50,0.0098,-0.442
51,0.01,0.068
52,0.0102,0.181
53,0.0104,0.067
54,0.0106,0.181
55,0.0108,0.092
56,0.011,0.133
57,0.0112,0.153
58,0.0114,0.142
59,0.0116,0.083
60,0.0118,0.161
61,0.012,0.182
62,0.0122,0.037
63,0.0124,0.17
64,0.0126,0.168
65,0.0128,0.081
66,0.013,0.126
67,0.0132,0.175
68,0.0134,0.123
69,0.0136,0.1
70,0.0138,-0.334
71,0.014,-1.051
72,0.0142,-1.262
73,0.0144,-0.866
74,0.0146,-0.743
75,0.0148,-0.165
76,0.015,0.27
77,0.0152,0.045
78,0.0154,0.08
79,0.0156,0.215
80,0.0158,0.123
81,0.016,0.073
82,0.0162,0.166
83,0.0164,0.179
84,0.0166,0.062
85,0.0168,0.168
86,0.017,0.136
87,0.0172,0.119
88,0.0174,0.139
89,0.0176,0.106
90,0.0178,0.157
91,0.018,0.129
92,0.0182,0.124
93,0.0184,0.121
94,0.0186,0.131
95,0.0188,-1.169
96,0.019,-1.131
97,0.0192,-1.044
98,0.0194,-0.907
99,0.0196,-0.424
100,0.0198,0.075
101,0.02,0.168
102,0.0202,0.075
103,0.0204,0.196
104,0.0206,0.074
105,0.0208,0.14
106,0.021,0.16
107,0.0212,0.142
108,0.0214,0.078
109,0.0216,0.163
110,0.0218,0.19
111,0.022,0.027
112,0.0222,0.172
113,0.0224,0.167
114,0.0226,0.088
115,0.0228,0.118
116,0.023,0.174
117,0.0232,0.129
118,0.0234,0.094
119,0.0236,-0.444
120,0.0238,-1.027
121,0.024,-1.272
122,0.0242,-0.876
123,0.0244,-0.734
124,0.0246,-0.167
125,0.0248,0.285
126,0.025,0.052
127,0.0252,0.075
128,0.0254,0.207
129,0.0256,0.133
130,0.0258,0.075
131,0.026,0.154
132,0.0262,0.181
133,0.0264,0.073
134,0.0266,0.162
135,0.0268,0.124
136,0.027,0.132
137,0.0272,0.139
138,0.0274,0.096
139,0.0276,0.159
140,0.0278,0.138
141,0.028,0.119
142,0.0282,0.114
143,0.0284,0.107
144,0.0286,-1.157
145,0.0288,-1.165
146,0.029,-0.991
147,0.0292,-0.899
148,0.0294,-0.381
149,0.0296,0.137
150,0.0298,0.14
151,0.03,0.068
152,0.0302,0.212
153,0.0304,0.086
154,0.0306,0.119
155,0.0308,0.161
156,0.031,0.161
157,0.0312,0.062
158,0.0314,0.165
159,0.0316,0.188
160,0.0318,0.045
161,0.032,0.161
162,0.0322,0.158
163,0.0324,0.104
164,0.0326,0.116
165,0.0328,0.165
166,0.033,0.13
167,0.0332,0.112
168,0.0334,-0.594
169,0.0336,-1.039
170,0.0338,-1.23
171,0.034,-0.871
172,0.0342,-0.672
173,0.0344,-0.132
174,0.0346,0.282
175,0.0348,0.044
176,0.035,0.091
177,0.0352,0.188
178,0.0354,0.141
179,0.0356,0.081
180,0.0358,0.15
181,0.036,0.177
182,0.0362,0.081
183,0.0364,0.17
184,0.0366,0.105
185,0.0368,0.148
186,0.037,0.143
187,0.0372,0.087
188,0.0374,0.16
189,0.0376,0.141
190,0.0378,0.119
191,0.038,0.106
192,0.0382,0.137
193,0.0384,-1.15
194,0.0386,-1.14
195,0.0388,-0.993
196,0.039,-0.867
197,0.0392,-0.388
198,0.0394,0.089
199,0.0396,0.152
200,0.0398,0.09
201,0.04,0.184
202,0.0402,0.077
203,0.0404,0.142
204,0.0406,0.156
205,0.0408,0.142
206,0.041,0.076
207,0.0412,0.174
208,0.0414,0.178
209,0.0416,0.034
210,0.0418,0.175
211,0.042,0.16
212,0.0422,0.09
213,0.0424,0.117
214,0.0426,0.176
215,0.0428,0.127
216,0.043,0.094
217,0.0432,-0.688
218,0.0434,-1.026
219,0.0436,-1.257
220,0.0438,-0.899
221,0.044,-0.647
222,0.0442,-0.131
223,0.0444,0.28
224,0.0446,0.043
225,0.0448,0.092
226,0.045,0.185
227,0.0452,0.144
228,0.0454,0.083
229,0.0456,0.146
230,0.0458,0.174
231,0.046,0.089
232,0.0462,0.16
233,0.0464,0.106
234,0.0466,0.15
235,0.0468,0.14
236,0.047,0.086
237,0.0472,0.163
238,0.0474,0.142
239,0.0476,0.112
240,0.0478,0.112
241,0.048,0.012
242,0.0482,-1.153
243,0.0484,-1.243
244,0.0486,-0.945
245,0.0488,-0.896
246,0.049,-0.329
247,0.0492,0.169
248,0.0494,0.093
249,0.0496,0.082
250,0.0498,0.232
251,0.05,0.068
252,0.0502,0.104
253,0.0504,0.186
254,0.0506,0.161
255,0.0508,0.047
256,0.051,0.178
257,0.0512,0.186
258,0.0514,0.047
259,0.0516,0.154
260,0.0518,0.159
261,0.052,0.119
262,0.0522,0.104
263,0.0524,0.161
264,0.0526,0.138
265,0.0528,0.117
266,0.053,-0.608
267,0.0532,-0.998
268,0.0534,-1.207
269,0.0536,-0.846
270,0.0538,-0.623
271,0.054,-0.133
272,0.0542,0.287
273,0.0544,0.045
274,0.0546,0.088
275,0.0548,0.188
276,0.055,0.148
277,0.0552,0.08
278,0.0554,0.142
279,0.0556,0.18
280,0.0558,0.086
281,0.056,0.155
282,0.0562,0.109
283,0.0564,0.153
284,0.0566,0.133
285,0.0568,0.088
286,0.057,0.165
287,0.0572,0.142
288,0.0574,0.113
289,0.0576,0.113
290,0.0578,0.026
291,0.058,-1.171
292,0.0582,-1.243
293,0.0584,-0.959
294,0.0586,-0.911
295,0.0588,-0.347
296,0.059,0.157
297,0.0592,0.091
298,0.0594,0.091
299,0.0596,0.234
300,0.0598,0.058
301,0.06,0.104
302,0.0602,0.193
303,0.0604,0.159
304,0.0606,0.037
305,0.0608,0.182
306,0.061,0.193
307,0.0612,0.036
308,0.0614,0.154
309,0.0616,0.168
310,0.0618,0.116
311,0.062,0.096
312,0.0622,0.169
313,0.0624,0.142
314,0.0626,0.108
315,0.0628,-0.703
316,0.063,-1.009
317,0.0632,-1.217
318,0.0634,-0.855
319,0.0636,-0.628
320,0.0638,-0.102
321,0.064,0.276
322,0.0642,0.053
323,0.0644,0.099
324,0.0646,0.169
325,0.0648,0.155
326,0.065,0.084
327,0.0652,0.146
328,0.0654,0.166
329,0.0656,0.099
330,0.0658,0.165
331,0.066,0.091
332,0.0662,0.161
333,0.0664,0.142
334,0.0666,0.085
335,0.0668,0.158
336,0.067,0.15
337,0.0672,0.114
338,0.0674,0.103
339,0.0676,0.144
340,0.0678,-1.142
341,0.068,-1.111
342,0.0682,-0.961
343,0.0684,-0.874
344,0.0686,-0.368
345,0.0688,0.128
346,0.069,0.142
347,0.0692,0.069
348,0.0694,0.211
349,0.0696,0.083
350,0.0698,0.121
351,0.07,0.161
352,0.0702,0.162
353,0.0704,0.062
354,0.0706,0.165
355,0.0708,0.186
356,0.071,0.043
357,0.0712,0.161
358,0.0714,0.161
359,0.0716,0.103
360,0.0718,0.112
361,0.072,0.167
362,0.0722,0.129
363,0.0724,0.109
364,0.0726,-0.864
365,0.0728,-1.045
366,0.073,-1.238
367,0.0732,-0.917
368,0.0734,-0.638
369,0.0736,-0.11
370,0.0738,0.27
371,0.074,0.062
372,0.0742,0.109
373,0.0744,0.148
374,0.0746,0.158
375,0.0748,0.104
376,0.075,0.133
377,0.0752,0.149
378,0.0754,0.113
379,0.0756,0.172
380,0.0758,0.068
381,0.076,0.165
382,0.0762,0.157
383,0.0764,0.072
384,0.0766,0.149
385,0.0768,0.163
386,0.077,0.117
387,0.0772,0.091
388,0.0774,0.11
389,0.0776,-1.15
390,0.0778,-1.158
391,0.078,-0.925
392,0.0782,-0.856
393,0.0784,-0.325
394,0.0786,0.17
395,0.0788,0.123
396,0.079,0.055
397,0.0792,0.232
398,0.0794,0.081
399,0.0796,0.11
400,0.0798,0.161
401,0.08,0.172
402,0.0802,0.059
403,0.0804,0.157
404,0.0806,0.191
405,0.0808,0.049
406,0.081,0.155
407,0.0812,0.15
408,0.0814,0.118
409,0.0816,0.114
410,0.0818,0.154
411,0.082,0.133
412,0.0822,0.121
413,0.0824,-0.686
414,0.0826,-1.02
415,0.0828,-1.23
416,0.083,-0.873
417,0.0832,-0.645
418,0.0834,-0.126
419,0.0836,0.285
420,0.0838,0.036
421,0.084,0.095
422,0.0842,0.19
423,0.0844,0.141
424,0.0846,0.079
425,0.0848,0.152
426,0.085,0.175
427,0.0852,0.081
428,0.0854,0.163
429,0.0856,0.109
430,0.0858,0.148
431,0.086,0.138
432,0.0862,0.091
433,0.0864,0.166
434,0.0866,0.141
435,0.0868,0.114
436,0.087,0.115
437,0.0872,-0.098
438,0.0874,-1.129
439,0.0876,-1.292
440,0.0878,-0.944
441,0.088,-0.9
442,0.0882,-0.312
443,0.0884,0.219
444,0.0886,0.074
445,0.0888,0.071
446,0.089,0.234
447,0.0892,0.096
448,0.0894,0.079
449,0.0896,0.181
450,0.0898,0.179
451,0.09,0.043
452,0.0902,0.172
453,0.0904,0.177
454,0.0906,0.071
455,0.0908,0.143
456,0.091,0.144
457,0.0912,0.137
458,0.0914,0.111
459,0.0916,0.146
460,0.0918,0.133
461,0.092,0.14
462,0.0922,-0.701
463,0.0924,-0.997
464,0.0926,-1.171
465,0.0928,-0.825
466,0.093,-0.587
467,0.0932,-0.102
468,0.0934,0.266
469,0.0936,0.06
470,0.0938,0.104
471,0.094,0.157
472,0.0942,0.155
473,0.0944,0.096
474,0.0946,0.139
475,0.0948,0.157
476,0.095,0.106
477,0.0952,0.168
478,0.0954,0.083
479,0.0956,0.161
480,0.0958,0.148
481,0.096,0.085
482,0.0962,0.15
483,0.0964,0.156
484,0.0966,0.119
485,0.0968,0.1
486,0.097,0.015
487,0.0972,-1.165
488,0.0974,-1.239
489,0.0976,-0.949
490,0.0978,-0.923
491,0.098,-0.329
492,0.0982,0.188
493,0.0984,0.081
494,0.0986,0.086
495,0.0988,0.229
496,0.099,0.077
497,0.0992,0.091
498,0.0994,0.188
499,0.0996,0.168
500,0.0998,0.032
501,0.1,0.185
502,0.1002,0.186
503,0.1004,0.046
504,0.1006,0.153
505,0.1008,0.16
506,0.101,0.119
507,0.1012,0.102
508,0.1014,0.162
509,0.1016,0.137
510,0.1018,0.112
511,0.102,-1.003
512,0.1022,-1.064
513,0.1024,-1.15
514,0.1026,-0.916
515,0.1028,-0.541
516,0.103,-0.008
517,0.1032,0.242
518,0.1034,0.05
519,0.1036,0.144
520,0.1038,0.125
521,0.104,0.153
522,0.1042,0.114
523,0.1044,0.144
524,0.1046,0.127
525,0.1048,0.13
526,0.105,0.175
527,0.1052,0.057
528,0.1054,0.172
529,0.1056,0.156
530,0.1058,0.076
531,0.106,0.146
532,0.1062,0.167
533,0.1064,0.115
534,0.1066,0.1
535,0.1068,0.045
536,0.107,-1.141
537,0.1072,-1.178
538,0.1074,-0.883
539,0.1076,-0.833
540,0.1078,-0.277
541,0.108,0.2
542,0.1082,0.096
543,0.1084,0.066
544,0.1086,0.228
545,0.1088,0.086
546,0.109,0.098
547,0.1092,0.17
548,0.1094,0.175
549,0.1096,0.051
550,0.1098,0.168
551,0.11,0.175
552,0.1102,0.064
553,0.1104,0.151
554,0.1106,0.144
555,0.1108,0.126
556,0.111,0.113
557,0.1112,0.154
558,0.1114,0.129
559,0.1116,0.13
560,0.1118,-0.969
561,0.112,-1.055
562,0.1122,-1.166
563,0.1124,-0.911
564,0.1126,-0.554
565,0.1128,-0.031
566,0.113,0.247
567,0.1132,0.064
568,0.1134,0.131
569,0.1136,0.13
570,0.1138,0.152
571,0.114,0.12
572,0.1142,0.133
573,0.1144,0.129
574,0.1146,0.133
575,0.1148,0.175
576,0.115,0.056
577,0.1152,0.17
578,0.1154,0.162
579,0.1156,0.07
580,0.1158,0.143
581,0.116,0.17
582,0.1162,0.116
583,0.1164,0.094
584,0.1166,-0.211
585,0.1168,-1.077
586,0.117,-1.288
587,0.1172,-0.899
588,0.1174,-0.816
589,0.1176,-0.249
590,0.1178,0.256
591,0.118,0.058
592,0.1182,0.068
593,0.1184,0.231
594,0.1186,0.105
595,0.1188,0.078
596,0.119,0.169
597,0.1192,0.186
598,0.1194,0.053
599,0.1196,0.167
600,0.1198,0.158
601,0.12,0.093
602,0.1202,0.142
603,0.1204,0.123
604,0.1206,0.146
605,0.1208,0.119
606,0.121,0.135
607,0.1212,0.128
608,0.1214,0.152
609,0.1216,-0.967
610,0.1218,-1.031
611,0.122,-1.119
612,0.1222,-0.899
613,0.1224,-0.51
614,0.1226,-0.016
615,0.1228,0.238
616,0.123,0.068
617,0.1232,0.132
618,0.1234,0.121
619,0.1236,0.16
620,0.1238,0.123
621,0.124,0.131
622,0.1242,0.125
623,0.1244,0.144
624,0.1246,0.167
625,0.1248,0.055
626,0.125,0.178
627,0.1252,0.157
628,0.1254,0.069
629,0.1256,0.142
630,0.1258,0.176
631,0.126,0.109
632,0.1262,0.096
633,0.1264,-0.226
634,0.1266,-1.084
635,0.1268,-1.287
636,0.127,-0.904
637,0.1272,-0.814
638,0.1274,-0.251
639,0.1276,0.268
640,0.1278,0.046
641,0.128,0.064
642,0.1282,0.244
643,0.1284,0.105
644,0.1286,0.068
645,0.1288,0.169
646,0.129,0.196
647,0.1292,0.043
648,0.1294,0.16
649,0.1296,0.168
650,0.1298,0.098
651,0.13,0.132
652,0.1302,0.123
653,0.1304,0.159
654,0.1306,0.112
655,0.1308,0.127
656,0.131,0.135
657,0.1312,0.14
658,0.1314,-1.108
659,0.1316,-1.102
660,0.1318,-1.08
661,0.132,-0.903
662,0.1322,-0.442
663,0.1324,0.025
664,0.1326,0.204
665,0.1328,0.075
666,0.133,0.163
667,0.1332,0.094
668,0.1334,0.15
669,0.1336,0.146
670,0.1338,0.128
671,0.134,0.106
672,0.1342,0.155
673,0.1344,0.176
674,0.1346,0.04
675,0.1348,0.18
676,0.135,0.159
677,0.1352,0.078
678,0.1354,0.135
679,0.1356,0.172
680,0.1358,0.123
681,0.136,0.093
682,0.1362,-0.291
683,0.1364,-1.056
684,0.1366,-1.267
685,0.1368,-0.867
686,0.137,-0.762
687,0.1372,-0.197
688,0.1374,0.269
689,0.1376,0.043
690,0.1378,0.076
691,0.138,0.228
692,0.1382,0.112
693,0.1384,0.068
694,0.1386,0.17
695,0.1388,0.188
696,0.139,0.052
697,0.1392,0.165
698,0.1394,0.153
699,0.1396,0.107
700,0.1398,0.135
701,0.14,0.117
702,0.1402,0.161
703,0.1404,0.116
704,0.1406,0.127
705,0.1408,0.13
706,0.141,0.135
707,0.1412,-1.136
708,0.1414,-1.102
709,0.1416,-1.055
710,0.1418,-0.904
711,0.142,-0.443
712,0.1422,0.053
713,0.1424,0.19
714,0.1426,0.064
715,0.1428,0.186
716,0.143,0.087
717,0.1432,0.144
718,0.1434,0.149
719,0.1436,0.142
720,0.1438,0.093
721,0.144,0.152
722,0.1442,0.187
723,0.1444,0.037
724,0.1446,0.172
725,0.1448,0.163
726,0.145,0.087
727,0.1452,0.125
728,0.1454,0.17
729,0.1456,0.126
730,0.1458,0.098
731,0.146,-0.365
732,0.1462,-1.035
733,0.1464,-1.255
734,0.1466,-0.881
735,0.1468,-0.749
736,0.147,-0.169
737,0.1472,0.278
738,0.1474,0.038
739,0.1476,0.075
740,0.1478,0.224
741,0.148,0.121
742,0.1482,0.068
743,0.1484,0.169
744,0.1486,0.182
745,0.1488,0.06
746,0.149,0.163
747,0.1492,0.142
748,0.1494,0.12
749,0.1496,0.133
750,0.1498,0.106
751,0.15,0.163
752,0.1502,0.125
753,0.1504,0.121
754,0.1506,0.129
755,0.1508,0.138
756,0.151,-1.15
757,0.1512,-1.112
758,0.1514,-1.021
759,0.1516,-0.909
760,0.1518,-0.432
761,0.152,0.099
762,0.1522,0.18
763,0.1524,0.048
764,0.1526,0.201
765,0.1528,0.092
766,0.153,0.131
767,0.1532,0.148
768,0.1534,0.157
769,0.1536,0.082
770,0.1538,0.15
771,0.154,0.188
772,0.1542,0.045
773,0.1544,0.166
774,0.1546,0.158
775,0.1548,0.094
776,0.155,0.126
777,0.1552,0.163
778,0.1554,0.123
779,0.1556,0.108
780,0.1558,-0.586
781,0.156,-1.02
782,0.1562,-1.254
783,0.1564,-0.899
784,0.1566,-0.705
785,0.1568,-0.121
786,0.157,0.289
787,0.1572,0.034
788,0.1574,0.087
789,0.1576,0.203
790,0.1578,0.14
791,0.158,0.068
792,0.1582,0.165
793,0.1584,0.173
794,0.1586,0.079
795,0.1588,0.163
796,0.159,0.116
797,0.1592,0.143
798,0.1594,0.138
799,0.1596,0.091
800,0.1598,0.165
801,0.16,0.14
802,0.1602,0.112
803,0.1604,0.118
804,0.1606,0.12
805,0.1608,-1.163
806,0.161,-1.154
807,0.1612,-0.976
808,0.1614,-0.881
809,0.1616,-0.361
810,0.1618,0.111
811,0.162,0.144
812,0.1622,0.077
813,0.1624,0.205
814,0.1626,0.075
815,0.1628,0.129
816,0.163,0.168
817,0.1632,0.148
818,0.1634,0.07
819,0.1636,0.17
820,0.1638,0.182
821,0.164,0.039
822,0.1642,0.167
823,0.1644,0.161
824,0.1646,0.098
825,0.1648,0.116
826,0.165,0.167
827,0.1652,0.13
828,0.1654,0.105
829,0.1656,-0.684
830,0.1658,-1.021
831,0.166,-1.238
832,0.1662,-0.894
833,0.1664,-0.678
834,0.1666,-0.115
835,0.1668,0.291
836,0.167,0.04
837,0.1672,0.093
838,0.1674,0.181
839,0.1676,0.15
840,0.1678,0.08
841,0.168,0.148
842,0.1682,0.174
843,0.1684,0.09
844,0.1686,0.163
845,0.1688,0.096
846,0.169,0.157
847,0.1692,0.142
848,0.1694,0.081
849,0.1696,0.162
850,0.1698,0.149
851,0.17,0.11
852,0.1702,0.106
853,0.1704,0.012
854,0.1706,-1.155
855,0.1708,-1.24
856,0.171,-0.943
857,0.1712,-0.895
858,0.1714,-0.335
859,0.1716,0.195
860,0.1718,0.093
861,0.172,0.056
862,0.1722,0.248
863,0.1724,0.077
864,0.1726,0.093
865,0.1728,0.175
866,0.173,0.179
867,0.1732,0.044
868,0.1734,0.163
869,0.1736,0.194
870,0.1738,0.056
871,0.174,0.146
872,0.1742,0.15
873,0.1744,0.131
874,0.1746,0.106
875,0.1748,0.15
876,0.175,0.138
877,0.1752,0.129
878,0.1754,-0.825
879,0.1756,-1.018
880,0.1758,-1.183
881,0.176,-0.871
882,0.1762,-0.557
883,0.1764,-0.058
884,0.1766,0.262
885,0.1768,0.051
886,0.177,0.116
887,0.1772,0.155
888,0.1774,0.148
889,0.1776,0.101
890,0.1778,0.141
891,0.178,0.15
892,0.1782,0.11
893,0.1784,0.167
894,0.1786,0.079
895,0.1788,0.163
896,0.179,0.148
897,0.1792,0.077
898,0.1794,0.157
899,0.1796,0.152
900,0.1798,0.114
901,0.18,0.106
902,0.1802,-0.019
903,0.1804,-1.148
904,0.1806,-1.249
905,0.1808,-0.933
906,0.181,-0.871
907,0.1812,-0.281
908,0.1814,0.192
909,0.1816,0.083
910,0.1818,0.083
911,0.182,0.225
912,0.1822,0.081
913,0.1824,0.098
914,0.1826,0.182
915,0.1828,0.162
916,0.183,0.048
917,0.1832,0.178
918,0.1834,0.172
919,0.1836,0.062
920,0.1838,0.152
921,0.184,0.146
922,0.1842,0.125
923,0.1844,0.11
924,0.1846,0.156
925,0.1848,0.132
926,0.185,0.123
927,0.1852,-0.968
928,0.1854,-1.056
929,0.1856,-1.143
930,0.1858,-0.899
931,0.186,-0.533
932,0.1862,-0.04
933,0.1864,0.25
934,0.1866,0.058
935,0.1868,0.131
936,0.187,0.129
937,0.1872,0.161
938,0.1874,0.112
939,0.1876,0.131
940,0.1878,0.141
941,0.188,0.128
942,0.1882,0.167
943,0.1884,0.062
944,0.1886,0.175
945,0.1888,0.151
946,0.189,0.075
947,0.1892,0.152
948,0.1894,0.163
949,0.1896,0.114
950,0.1898,0.098
951,0.19,0.013
952,0.1902,-1.145
953,0.1904,-1.212
954,0.1906,-0.896
955,0.1908,-0.839
956,0.191,-0.287
957,0.1912,0.186
958,0.1914,0.089
959,0.1916,0.078
960,0.1918,0.232
961,0.192,0.073
962,0.1922,0.102
963,0.1924,0.178
964,0.1926,0.165
965,0.1928,0.047
966,0.193,0.175
967,0.1932,0.178
968,0.1934,0.056
969,0.1936,0.15
970,0.1938,0.15
971,0.194,0.123
972,0.1942,0.106
973,0.1944,0.156
974,0.1946,0.136
975,0.1948,0.121
976,0.195,-0.94
977,0.1952,-1.039
978,0.1954,-1.163
979,0.1956,-0.9
980,0.1958,-0.567
981,0.196,-0.022
982,0.1962,0.247
983,0.1964,0.05
984,0.1966,0.138
985,0.1968,0.131
986,0.197,0.155
987,0.1972,0.111
988,0.1974,0.143
989,0.1976,0.131
990,0.1978,0.121
991,0.198,0.178
992,0.1982,0.06
993,0.1984,0.169
994,0.1986,0.157
995,0.1988,0.078
996,0.199,0.144
997,0.1992,0.165
998,0.1994,0.116
999,0.1996,0.1
1000,0.1998,-0.196
1001,0.2,-1.098
1002,0.2002,-1.285
1003,0.2004,-0.899
1004,0.2006,-0.825
1005,0.2008,-0.247
1006,0.201,0.241
1007,0.2012,0.069
1008,0.2014,0.068
1009,0.2016,0.224
1010,0.2018,0.108
1011,0.202,0.081
1012,0.2022,0.167
1013,0.2024,0.177
1014,0.2026,0.058
1015,0.2028,0.165
1016,0.203,0.154
1017,0.2032,0.094
1018,0.2034,0.148
1019,0.2036,0.12
1020,0.2038,0.142
1021,0.204,0.123
1022,0.2042,0.136
1023,0.2044,0.125
1024,0.2046,0.144
1025,0.2048,-1.024
1026,0.205,-1.058
1027,0.2052,-1.103
1028,0.2054,-0.881
1029,0.2056,-0.459
1030,0.2058,0.017
1031,0.206,0.212
1032,0.2062,0.073
1033,0.2064,0.152
1034,0.2066,0.107
1035,0.2068,0.148
1036,0.207,0.139
1037,0.2072,0.135
1038,0.2074,0.107
1039,0.2076,0.15
1040,0.2078,0.175
1041,0.208,0.046
1042,0.2082,0.175
1043,0.2084,0.16
1044,0.2086,0.077
1045,0.2088,0.135
1046,0.209,0.17
1047,0.2092,0.12
1048,0.2094,0.094
1049,0.2096,-0.282
1050,0.2098,-1.072
1051,0.21,-1.285
1052,0.2102,-0.893
1053,0.2104,-0.793
1054,0.2106,-0.214
1055,0.2108,0.256
1056,0.211,0.049
1057,0.2112,0.08
1058,0.2114,0.223
1059,0.2116,0.114
1060,0.2118,0.075
1061,0.212,0.174
1062,0.2122,0.18
1063,0.2124,0.054
1064,0.2126,0.169
1065,0.2128,0.148
1066,0.213,0.104
1067,0.2132,0.14
1068,0.2134,0.118
1069,0.2136,0.153
1070,0.2138,0.121
1071,0.214,0.131
1072,0.2142,0.129
1073,0.2144,0.116
1074,0.2146,-1.15
1075,0.2148,-1.14
1076,0.215,-1.047
1077,0.2152,-0.918
1078,0.2154,-0.413
1079,0.2156,0.062
1080,0.2158,0.175
1081,0.216,0.07
1082,0.2162,0.181
1083,0.2164,0.098
1084,0.2166,0.13
1085,0.2168,0.155
1086,0.217,0.14
1087,0.2172,0.09
1088,0.2174,0.158
1089,0.2176,0.178
1090,0.2178,0.046
1091,0.218,0.169
1092,0.2182,0.159
1093,0.2184,0.091
1094,0.2186,0.129
1095,0.2188,0.166
1096,0.219,0.125
1097,0.2192,0.104
1098,0.2194,-0.291
1099,0.2196,-1.056
1100,0.2198,-1.247
1101,0.22,-0.867
1102,0.2202,-0.755
1103,0.2204,-0.201
1104,0.2206,0.267
1105,0.2208,0.041
1106,0.221,0.085
1107,0.2212,0.218
1108,0.2214,0.112
1109,0.2216,0.077
1110,0.2218,0.168
1111,0.222,0.18
1112,0.2222,0.051
1113,0.2224,0.173
1114,0.2226,0.146
1115,0.2228,0.106
1116,0.223,0.14
1117,0.2232,0.118
1118,0.2234,0.153
1119,0.2236,0.12
1120,0.2238,0.132
1121,0.224,0.127
1122,0.2242,0.142
1123,0.2244,-1.101
1124,0.2246,-1.089
1125,0.2248,-1.052
1126,0.225,-0.911
1127,0.2252,-0.48
1128,0.2254,0.041
1129,0.2256,0.207
1130,0.2258,0.064
1131,0.226,0.174
1132,0.2262,0.096
1133,0.2264,0.149
1134,0.2266,0.138
1135,0.2268,0.139
1136,0.227,0.102
1137,0.2272,0.151
1138,0.2274,0.18
1139,0.2276,0.04
1140,0.2278,0.175
1141,0.228,0.163
1142,0.2282,0.08
1143,0.2284,0.13
1144,0.2286,0.175
1145,0.2288,0.118
1146,0.229,0.095
1147,0.2292,-0.322
1148,0.2294,-1.052
1149,0.2296,-1.259
1150,0.2298,-0.875
1151,0.23,-0.801
1152,0.2302,-0.207
1153,0.2304,0.285
1154,0.2306,0.053
1155,0.2308,0.063
1156,0.231,0.22
1157,0.2312,0.13
1158,0.2314,0.066
1159,0.2316,0.161
1160,0.2318,0.186
1161,0.232,0.062
1162,0.2322,0.162
1163,0.2324,0.138
1164,0.2326,0.121
1165,0.2328,0.14
1166,0.233,0.106
1167,0.2332,0.157
1168,0.2334,0.131
1169,0.2336,0.123
1170,0.2338,0.118
1171,0.234,0.16
1172,0.2342,-1.077
1173,0.2344,-1.083
1174,0.2346,-1.058
1175,0.2348,-0.878
1176,0.235,-0.446
1177,0.2352,0.025
1178,0.2354,0.204
1179,0.2356,0.076
1180,0.2358,0.166
1181,0.236,0.091
1182,0.2362,0.15
1183,0.2364,0.15
1184,0.2366,0.13
1185,0.2368,0.099
1186,0.237,0.157
1187,0.2372,0.179
1188,0.2374,0.037
1189,0.2376,0.176
1190,0.2378,0.165
1191,0.238,0.078
1192,0.2382,0.129
1193,0.2384,0.177
1194,0.2386,0.121
1195,0.2388,0.091
1196,0.239,-0.329
1197,0.2392,-1.066
1198,0.2394,-1.281
1199,0.2396,-0.886
1200,0.2398,-0.766
1201,0.24,-0.206
1202,0.2402,0.267
1203,0.2404,0.037
1204,0.2406,0.079
1205,0.2408,0.232
1206,0.241,0.107
1207,0.2412,0.068
1208,0.2414,0.175
1209,0.2416,0.188
1210,0.2418,0.046
1211,0.242,0.167
1212,0.2422,0.155
1213,0.2424,0.105
1214,0.2426,0.132
1215,0.2428,0.121
1216,0.243,0.161
1217,0.2432,0.114
1218,0.2434,0.129
1219,0.2436,0.131
1220,0.2438,0.121
1221,0.244,-1.15
1222,0.2442,-1.122
1223,0.2444,-1.047
1224,0.2446,-0.9
1225,0.2448,-0.434
1226,0.245,0.05
1227,0.2452,0.18
1228,0.2454,0.077
1229,0.2456,0.182
1230,0.2458,0.077
1231,0.246,0.148
1232,0.2462,0.156
1233,0.2464,0.136
1234,0.2466,0.089
1235,0.2468,0.162
1236,0.247,0.186
1237,0.2472,0.03
1238,0.2474,0.176
1239,0.2476,0.165
1240,0.2478,0.086
1241,0.248,0.123
1242,0.2482,0.176
1243,0.2484,0.127
1244,0.2486,0.091
1245,0.2488,-0.417
1246,0.249,-1.028
1247,0.2492,-1.263
1248,0.2494,-0.865
1249,0.2496,-0.719
1250,0.2498,-0.178
1251,0.25,0.278
1252,0.2502,0.037
1253,0.2504,0.078
1254,0.2506,0.223
1255,0.2508,0.118
1256,0.251,0.072
1257,0.2512,0.162
1258,0.2514,0.188
1259,0.2516,0.055
1260,0.2518,0.161
1261,0.252,0.142
1262,0.2522,0.121
1263,0.2524,0.132
1264,0.2526,0.106
1265,0.2528,0.167
1266,0.253,0.12
1267,0.2532,0.123
1268,0.2534,0.129
1269,0.2536,0.129
1270,0.2538,-1.161
1271,0.254,-1.14
1272,0.2542,-1.035
1273,0.2544,-0.921
1274,0.2546,-0.419
1275,0.2548,0.089
1276,0.255,0.167
1277,0.2552,0.067
1278,0.2554,0.197
1279,0.2556,0.083
1280,0.2558,0.135
1281,0.256,0.154
1282,0.2562,0.148
1283,0.2564,0.081
1284,0.2566,0.161
1285,0.2568,0.187
1286,0.257,0.038
1287,0.2572,0.168
1288,0.2574,0.163
1289,0.2576,0.091
1290,0.2578,0.12
1291,0.258,0.17
1292,0.2582,0.128
1293,0.2584,0.101
1294,0.2586,-0.466
1295,0.2588,-1.027
1296,0.259,-1.254
1297,0.2592,-0.885
1298,0.2594,-0.751
1299,0.2596,-0.176
1300,0.2598,0.293
1301,0.26,0.038
1302,0.2602,0.077
1303,0.2604,0.209
1304,0.2606,0.138
1305,0.2608,0.064
1306,0.261,0.155
1307,0.2612,0.187
1308,0.2614,0.068
1309,0.2616,0.161
1310,0.2618,0.126
1311,0.262,0.133
1312,0.2622,0.135
1313,0.2624,0.099
1314,0.2626,0.163
1315,0.2628,0.135
1316,0.263,0.115
1317,0.2632,0.119
1318,0.2634,0.128
1319,0.2636,-1.154
1320,0.2638,-1.143
1321,0.264,-1.004
1322,0.2642,-0.911
1323,0.2644,-0.402
1324,0.2646,0.113
1325,0.2648,0.16
1326,0.265,0.056
1327,0.2652,0.215
1328,0.2654,0.079
1329,0.2656,0.127
1330,0.2658,0.156
1331,0.266,0.158
1332,0.2662,0.075
1333,0.2664,0.157
1334,0.2666,0.193
1335,0.2668,0.041
1336,0.267,0.163
1337,0.2672,0.16
1338,0.2674,0.1
1339,0.2676,0.12
1340,0.2678,0.165
1341,0.268,0.13
1342,0.2682,0.108
1343,0.2684,-0.405
1344,0.2686,-1.054
1345,0.2688,-1.264
1346,0.269,-0.864
1347,0.2692,-0.721
1348,0.2694,-0.172
1349,0.2696,0.27
1350,0.2698,0.045
1351,0.27,0.087
1352,0.2702,0.21
1353,0.2704,0.121
1354,0.2706,0.08
1355,0.2708,0.163
1356,0.271,0.178
1357,0.2712,0.063
1358,0.2714,0.169
1359,0.2716,0.131
1360,0.2718,0.12
1361,0.272,0.141
1362,0.2722,0.104
1363,0.2724,0.157
1364,0.2726,0.131
1365,0.2728,0.126
1366,0.273,0.121
1367,0.2732,0.106
1368,0.2734,-1.158
1369,0.2736,-1.157
1370,0.2738,-0.993
1371,0.274,-0.915
1372,0.2742,-0.386
1373,0.2744,0.116
1374,0.2746,0.152
1375,0.2748,0.068
1376,0.275,0.2
1377,0.2752,0.091
1378,0.2754,0.12
1379,0.2756,0.163
1380,0.2758,0.153
1381,0.276,0.069
1382,0.2762,0.166
1383,0.2764,0.18
1384,0.2766,0.046
1385,0.2768,0.165
1386,0.277,0.158
1387,0.2772,0.099
1388,0.2774,0.12
1389,0.2776,0.167
1390,0.2778,0.125
1391,0.278,0.112
1392,0.2782,-0.577
1393,0.2784,-1.029
1394,0.2786,-1.245
1395,0.2788,-0.885
1396,0.279,-0.707
1397,0.2792,-0.157
1398,0.2794,0.3
1399,0.2796,0.045
1400,0.2798,0.075
1401,0.28,0.199
1402,0.2802,0.15
1403,0.2804,0.074
1404,0.2806,0.144
1405,0.2808,0.185
1406,0.281,0.081
1407,0.2812,0.156
1408,0.2814,0.112
1409,0.2816,0.149
1410,0.2818,0.138
1411,0.282,0.084
1412,0.2822,0.166
1413,0.2824,0.144
1414,0.2826,0.108
1415,0.2828,0.111
1416,0.283,0.116
1417,0.2832,-1.167
1418,0.2834,-1.161
1419,0.2836,-0.978
1420,0.2838,-0.892
1421,0.284,-0.371
1422,0.2842,0.104
1423,0.2844,0.139
1424,0.2846,0.086
1425,0.2848,0.205
1426,0.285,0.065
1427,0.2852,0.133
1428,0.2854,0.173
1429,0.2856,0.142
1430,0.2858,0.064
1431,0.286,0.178
1432,0.2862,0.184
1433,0.2864,0.031
1434,0.2866,0.169
1435,0.2868,0.165
1436,0.287,0.099
1437,0.2872,0.112
1438,0.2874,0.177
1439,0.2876,0.13
1440,0.2878,0.099
1441,0.288,-0.74
1442,0.2882,-1.021
1443,0.2884,-1.232
1444,0.2886,-0.883
1445,0.2888,-0.646
1446,0.289,-0.102
1447,0.2892,0.276
1448,0.2894,0.049
1449,0.2896,0.101
1450,0.2898,0.165
1451,0.29,0.156
1452,0.2902,0.088
1453,0.2904,0.144
1454,0.2906,0.165
1455,0.2908,0.1
1456,0.291,0.169
1457,0.2912,0.087
1458,0.2914,0.158
1459,0.2916,0.146
1460,0.2918,0.081
1461,0.292,0.156
1462,0.2922,0.152
1463,0.2924,0.117
1464,0.2926,0.102
1465,0.2928,0.039
1466,0.293,-1.157
1467,0.2932,-1.22
1468,0.2934,-0.941
1469,0.2936,-0.883
1470,0.2938,-0.287
1471,0.294,0.175
1472,0.2942,0.096
1473,0.2944,0.084
1474,0.2946,0.22
1475,0.2948,0.077
1476,0.295,0.101
1477,0.2952,0.188
1478,0.2954,0.154
1479,0.2956,0.05
1480,0.2958,0.181
1481,0.296,0.176
1482,0.2962,0.054
1483,0.2964,0.157
1484,0.2966,0.156
1485,0.2968,0.114
1486,0.297,0.112
1487,0.2972,0.163
1488,0.2974,0.131
1489,0.2976,0.121
1490,0.2978,-0.788
1491,0.298,-1.016
1492,0.2982,-1.201
1493,0.2984,-0.875
1494,0.2986,-0.607
1495,0.2988,-0.106
1496,0.299,0.287
1497,0.2992,0.048
1498,0.2994,0.095
1499,0.2996,0.168
1500,0.2998,0.157
1501,0.3,0.09
1502,0.3002,0.133
1503,0.3004,0.175
1504,0.3006,0.103
1505,0.3008,0.154
1506,0.301,0.089
1507,0.3012,0.169
1508,0.3014,0.138
1509,0.3016,0.077
1510,0.3018,0.166
1511,0.302,0.152
1512,0.3022,0.108
1513,0.3024,0.106
1514,0.3026,-0.043
1515,0.3028,-1.146
1516,0.303,-1.254
1517,0.3032,-0.922
1518,0.3034,-0.864
1519,0.3036,-0.287
1520,0.3038,0.224
1521,0.304,0.068
1522,0.3042,0.066
1523,0.3044,0.253
1524,0.3046,0.082
1525,0.3048,0.077
1526,0.305,0.186
1527,0.3052,0.18
1528,0.3054,0.035
1529,0.3056,0.165
1530,0.3058,0.192
1531,0.306,0.062
1532,0.3062,0.138
1533,0.3064,0.148
1534,0.3066,0.14
1535,0.3068,0.102
1536,0.307,0.146
1537,0.3072,0.144
1538,0.3074,0.133
1539,0.3076,-0.779
1540,0.3078,-1.009
1541,0.308,-1.175
1542,0.3082,-0.839
1543,0.3084,-0.59
1544,0.3086,-0.085
1545,0.3088,0.265
1546,0.309,0.066
1547,0.3092,0.107
1548,0.3094,0.143
1549,0.3096,0.161
1550,0.3098,0.103
1551,0.31,0.132
1552,0.3102,0.152
1553,0.3104,0.117
1554,0.3106,0.171
1555,0.3108,0.068
1556,0.311,0.167
1557,0.3112,0.156
1558,0.3114,0.075
1559,0.3116,0.149
1560,0.3118,0.165
1561,0.312,0.118
1562,0.3122,0.092
1563,0.3124,-0.053
1564,0.3126,-1.133
1565,0.3128,-1.252
1566,0.313,-0.911
1567,0.3132,-0.858
1568,0.3134,-0.274
1569,0.3136,0.219
1570,0.3138,0.065
1571,0.314,0.077
1572,0.3142,0.245
1573,0.3144,0.077
1574,0.3146,0.081
1575,0.3148,0.186
1576,0.315,0.178
1577,0.3152,0.035
1578,0.3154,0.175
1579,0.3156,0.184
1580,0.3158,0.062
1581,0.316,0.144
1582,0.3162,0.146
1583,0.3164,0.136
1584,0.3166,0.101
1585,0.3168,0.149
1586,0.317,0.142
1587,0.3172,0.129
1588,0.3174,-0.931
1589,0.3176,-1.042
1590,0.3178,-1.155
1591,0.318,-0.892
1592,0.3182,-0.569
1593,0.3184,-0.018
1594,0.3186,0.251
1595,0.3188,0.052
1596,0.319,0.137
1597,0.3192,0.129
1598,0.3194,0.157
1599,0.3196,0.108
1600,0.3198,0.146
1601,0.32,0.127
1602,0.3202,0.125
1603,0.3204,0.178
1604,0.3206,0.058
1605,0.3208,0.172
1606,0.321,0.155
1607,0.3212,0.076
1608,0.3214,0.142
1609,0.3216,0.167
1610,0.3218,0.113
1611,0.322,0.094
1612,0.3222,-0.089
1613,0.3224,-1.11
1614,0.3226,-1.249
1615,0.3228,-0.892
1616,0.323,-0.834
1617,0.3232,-0.268
1618,0.3234,0.234
1619,0.3236,0.043
1620,0.3238,0.082
1621,0.324,0.253
1622,0.3242,0.077
1623,0.3244,0.076
1624,0.3246,0.193
1625,0.3248,0.184
1626,0.325,0.022
1627,0.3252,0.177
1628,0.3254,0.188
1629,0.3256,0.064
1630,0.3258,0.138
1631,0.326,0.15
1632,0.3262,0.144
1633,0.3264,0.096
1634,0.3266,0.148
1635,0.3268,0.146
1636,0.327,0.113
1637,0.3272,-1.098
1638,0.3274,-1.102
1639,0.3276,-1.103
1640,0.3278,-0.941
1641,0.328,-0.516
1642,0.3282,0.021
1643,0.3284,0.216
1644,0.3286,0.059
1645,0.3288,0.167
1646,0.329,0.098
1647,0.3292,0.15
1648,0.3294,0.136
1649,0.3296,0.14
1650,0.3298,0.106
1651,0.33,0.146
1652,0.3302,0.184
1653,0.3304,0.04
1654,0.3306,0.175
1655,0.3308,0.163
1656,0.331,0.075
1657,0.3312,0.133
1658,0.3314,0.172
1659,0.3316,0.121
1660,0.3318,0.093
1661,0.332,-0.151
1662,0.3322,-1.094
1663,0.3324,-1.243
1664,0.3326,-0.859
1665,0.3328,-0.783
1666,0.333,-0.211
1667,0.3332,0.253
1668,0.3334,0.066
1669,0.3336,0.066
1670,0.3338,0.225
1671,0.334,0.112
1672,0.3342,0.08
1673,0.3344,0.167
1674,0.3346,0.182
1675,0.3348,0.056
1676,0.335,0.167
1677,0.3352,0.153
1678,0.3354,0.102
1679,0.3356,0.146
1680,0.3358,0.119
1681,0.336,0.148
1682,0.3362,0.124
1683,0.3364,0.135
1684,0.3366,0.123
1685,0.3368,0.15
1686,0.337,-1.049
1687,0.3372,-1.071
1688,0.3374,-1.105
1689,0.3376,-0.893
1690,0.3378,-0.501
1691,0.338,0.008
1692,0.3382,0.215
1693,0.3384,0.064
1694,0.3386,0.163
1695,0.3388,0.1
1696,0.339,0.154
1697,0.3392,0.13
1698,0.3394,0.144
1699,0.3396,0.109
1700,0.3398,0.142
1701,0.34,0.186
1702,0.3402,0.043
1703,0.3404,0.173
1704,0.3406,0.161
1705,0.3408,0.084
1706,0.341,0.131
1707,0.3412,0.169
1708,0.3414,0.126
1709,0.3416,0.094
1710,0.3418,-0.367
1711,0.342,-1.067
1712,0.3422,-1.3
1713,0.3424,-0.9
1714,0.3426,-0.789
1715,0.3428,-0.233
1716,0.343,0.308
1717,0.3432,0.03
1718,0.3434,0.052
1719,0.3436,0.25
1720,0.3438,0.123
1721,0.344,0.05
1722,0.3442,0.161
1723,0.3444,0.214
1724,0.3446,0.041
1725,0.3448,0.148
1726,0.345,0.165
1727,0.3452,0.117
1728,0.3454,0.124
1729,0.3456,0.107
1730,0.3458,0.178
1731,0.346,0.118
1732,0.3462,0.112
1733,0.3464,0.135
1734,0.3466,0.154
1735,0.3468,-1.093
1736,0.347,-1.074
1737,0.3472,-1.035
1738,0.3474,-0.892
1739,0.3476,-0.435
1740,0.3478,0.044
1741,0.348,0.2
1742,0.3482,0.073
1743,0.3484,0.162
1744,0.3486,0.098
1745,0.3488,0.15
1746,0.349,0.14
1747,0.3492,0.136
1748,0.3494,0.101
1749,0.3496,0.16
1750,0.3498,0.172
1751,0.35,0.043
1752,0.3502,0.18
1753,0.3504,0.157
1754,0.3506,0.081
1755,0.3508,0.132
1756,0.351,0.175
1757,0.3512,0.118
1758,0.3514,0.098
1759,0.3516,-0.328
1760,0.3518,-1.066
1761,0.352,-1.263
1762,0.3522,-0.868
1763,0.3524,-0.786
1764,0.3526,-0.225
1765,0.3528,0.276
1766,0.353,0.062
1767,0.3532,0.062
1768,0.3534,0.217
1769,0.3536,0.127
1770,0.3538,0.074
1771,0.354,0.156
1772,0.3542,0.189
1773,0.3544,0.063
1774,0.3546,0.163
1775,0.3548,0.138
1776,0.355,0.121
1777,0.3552,0.139
1778,0.3554,0.105
1779,0.3556,0.154
1780,0.3558,0.13
1781,0.356,0.125
1782,0.3562,0.115
1783,0.3564,0.14
1784,0.3566,-1.142
1785,0.3568,-1.129
1786,0.357,-1.041
1787,0.3572,-0.892
1788,0.3574,-0.438
1789,0.3576,0.062
1790,0.3578,0.18
1791,0.358,0.077
1792,0.3582,0.181
1793,0.3584,0.084
1794,0.3586,0.146
1795,0.3588,0.15
1796,0.359,0.142
1797,0.3592,0.086
1798,0.3594,0.162
1799,0.3596,0.184
1800,0.3598,0.033
1801,0.36,0.178
1802,0.3602,0.162
1803,0.3604,0.086
1804,0.3606,0.124
1805,0.3608,0.175
1806,0.361,0.126
1807,0.3612,0.093
1808,0.3614,-0.385
1809,0.3616,-1.033
1810,0.3618,-1.256
1811,0.362,-0.862
1812,0.3622,-0.744
1813,0.3624,-0.194
1814,0.3626,0.301
1815,0.3628,0.045
1816,0.363,0.058
1817,0.3632,0.224
1818,0.3634,0.137
1819,0.3636,0.066
1820,0.3638,0.148
1821,0.364,0.201
1822,0.3642,0.064
1823,0.3644,0.149
1824,0.3646,0.14
1825,0.3648,0.132
1826,0.365,0.13
1827,0.3652,0.098
1828,0.3654,0.169
1829,0.3656,0.131
1830,0.3658,0.114
1831,0.366,0.121
1832,0.3662,0.087
1833,0.3664,-1.191
1834,0.3666,-1.194
1835,0.3668,-0.998
1836,0.367,-0.912
1837,0.3672,-0.379
1838,0.3674,0.142
1839,0.3676,0.125
1840,0.3678,0.064
1841,0.368,0.231
1842,0.3682,0.072
1843,0.3684,0.112
1844,0.3686,0.172
1845,0.3688,0.165
1846,0.369,0.054
1847,0.3692,0.162
1848,0.3694,0.2
1849,0.3696,0.037
1850,0.3698,0.157
1851,0.37,0.165
1852,0.3702,0.108
1853,0.3704,0.108
1854,0.3706,0.161
1855,0.3708,0.14
1856,0.371,0.106
1857,0.3712,-0.57
1858,0.3714,-1.012
1859,0.3716,-1.243
1860,0.3718,-0.862
1861,0.372,-0.678
1862,0.3722,-0.159
1863,0.3724,0.292
1864,0.3726,0.051
1865,0.3728,0.074
1866,0.373,0.199
1867,0.3732,0.148
1868,0.3734,0.074
1869,0.3736,0.142
1870,0.3738,0.187
1871,0.374,0.081
1872,0.3742,0.152
1873,0.3744,0.114
1874,0.3746,0.15
1875,0.3748,0.133
1876,0.375,0.087
1877,0.3752,0.167
1878,0.3754,0.141
1879,0.3756,0.112
1880,0.3758,0.111
1881,0.376,0.141
1882,0.3762,-1.166
1883,0.3764,-1.139
1884,0.3766,-0.997
1885,0.3768,-0.88
1886,0.377,-0.371
1887,0.3772,0.096
1888,0.3774,0.158
1889,0.3776,0.076
1890,0.3778,0.192
1891,0.378,0.085
1892,0.3782,0.132
1893,0.3784,0.157
1894,0.3786,0.144
1895,0.3788,0.08
1896,0.379,0.165
1897,0.3792,0.178
1898,0.3794,0.041
1899,0.3796,0.171
1900,0.3798,0.16
1901,0.38,0.095
1902,0.3802,0.121
1903,0.3804,0.171
1904,0.3806,0.125
1905,0.3808,0.104
1906,0.381,-0.707
1907,0.3812,-1.026
1908,0.3814,-1.249
1909,0.3816,-0.909
1910,0.3818,-0.678
1911,0.382,-0.117
1912,0.3822,0.287
1913,0.3824,0.036
1914,0.3826,0.104
1915,0.3828,0.178
1916,0.383,0.148
1917,0.3832,0.081
1918,0.3834,0.15
1919,0.3836,0.173
1920,0.3838,0.086
1921,0.384,0.168
1922,0.3842,0.096
1923,0.3844,0.153
1924,0.3846,0.142
1925,0.3848,0.086
1926,0.385,0.16
1927,0.3852,0.144
1928,0.3854,0.115
1929,0.3856,0.107
1930,0.3858,0.056
1931,0.386,-1.157
1932,0.3862,-1.207
1933,0.3864,-0.943
1934,0.3866,-0.892
1935,0.3868,-0.337
1936,0.387,0.168
1937,0.3872,0.119
1938,0.3874,0.067
1939,0.3876,0.22
1940,0.3878,0.084
1941,0.388,0.108
1942,0.3882,0.167
1943,0.3884,0.163
1944,0.3886,0.058
1945,0.3888,0.169
1946,0.389,0.179
1947,0.3892,0.054
1948,0.3894,0.159
1949,0.3896,0.149
1950,0.3898,0.115
1951,0.39,0.114
1952,0.3902,0.159
1953,0.3904,0.129
1954,0.3906,0.124
1955,0.3908,-0.522
1956,0.391,-1.021
1957,0.3912,-1.211
1958,0.3914,-0.841
1959,0.3916,-0.659
1960,0.3918,-0.132
1961,0.392,0.271
1962,0.3922,0.041
1963,0.3924,0.099
1964,0.3926,0.192
1965,0.3928,0.133
1966,0.393,0.083
1967,0.3932,0.16
1968,0.3934,0.173
1969,0.3936,0.075
1970,0.3938,0.171
1971,0.394,0.113
1972,0.3942,0.138
1973,0.3944,0.14
1974,0.3946,0.099
1975,0.3948,0.159
1976,0.395,0.133
1977,0.3952,0.123
1978,0.3954,0.116
1979,0.3956,0.056
1980,0.3958,-1.18
1981,0.396,-1.209
1982,0.3962,-0.971
1983,0.3964,-0.911
1984,0.3966,-0.359
1985,0.3968,0.161
1986,0.397,0.112
1987,0.3972,0.073
1988,0.3974,0.224
1989,0.3976,0.083
1990,0.3978,0.102
1991,0.398,0.175
1992,0.3982,0.167
1993,0.3984,0.049
1994,0.3986,0.172
1995,0.3988,0.188
1996,0.399,0.048
1997,0.3992,0.155
1998,0.3994,0.156
1999,0.3996,0.114
2000,0.3998,0.108
1,0.4,0.163
2,0.4002,0.135
3,0.4004,0.116
4,0.4006,-0.7
5,0.4008,-1.005
6,0.401,-1.22
7,0.4012,-0.864
8,0.4014,-0.636
9,0.4016,-0.117
10,0.4018,0.276
11,0.402,0.048
12,0.4022,0.103
13,0.4024,0.168
14,0.4026,0.15
15,0.4028,0.09
16,0.403,0.143
17,0.4032,0.165
18,0.4034,0.099
19,0.4036,0.167
20,0.4038,0.09
21,0.404,0.154
22,0.4042,0.142
23,0.4044,0.086
24,0.4046,0.157
25,0.4048,0.15
26,0.405,0.116
27,0.4052,0.104
28,0.4054,0.093
29,0.4056,-1.16
30,0.4058,-1.18
31,0.406,-0.953
32,0.4062,-0.884
33,0.4064,-0.367
34,0.4066,0.156
35,0.4068,0.125
36,0.407,0.056
37,0.4072,0.224
38,0.4074,0.087
39,0.4076,0.106
40,0.4078,0.16
41,0.408,0.175
42,0.4082,0.057
43,0.4084,0.156
44,0.4086,0.19
45,0.4088,0.052
46,0.409,0.154
47,0.4092,0.15
48,0.4094,0.121
49,0.4096,0.112
50,0.4098,0.157
51,0.41,0.132
52,0.4102,0.118
53,0.4104,-0.767
54,0.4106,-1.014
55,0.4108,-1.23
56,0.411,-0.923
57,0.4112,-0.644
58,0.4114,-0.119
59,0.4116,0.297
60,0.4118,0.039
61,0.412,0.086
62,0.4122,0.186
63,0.4124,0.154
64,0.4126,0.082
65,0.4128,0.138
66,0.413,0.178
67,0.4132,0.1
68,0.4134,0.15
69,0.4136,0.098
70,0.4138,0.168
71,0.414,0.136
72,0.4142,0.074
73,0.4144,0.173
74,0.4146,0.152
75,0.4148,0.101
76,0.415,0.11
77,0.4152,0.087
78,0.4154,-1.16
79,0.4156,-1.18
80,0.4158,-0.949
81,0.416,-0.907
82,0.4162,-0.324
83,0.4164,0.152
84,0.4166,0.106
85,0.4168,0.083
86,0.417,0.222
87,0.4172,0.074
88,0.4174,0.107
89,0.4176,0.182
90,0.4178,0.154
91,0.418,0.051
92,0.4182,0.178
93,0.4184,0.182
94,0.4186,0.043
95,0.4188,0.16
96,0.419,0.161
97,0.4192,0.107
98,0.4194,0.109
99,0.4196,0.165
100,0.4198,0.133
101,0.42,0.114
102,0.4202,-0.632
103,0.4204,-1.017
104,0.4206,-1.233
105,0.4208,-0.866
106,0.421,-0.652
107,0.4212,-0.133
108,0.4214,0.288
109,0.4216,0.045
110,0.4218,0.087
111,0.422,0.181
112,0.4222,0.15
113,0.4224,0.08
114,0.4226,0.141
115,0.4228,0.179
116,0.423,0.091
117,0.4232,0.157
118,0.4234,0.106
119,0.4236,0.152
120,0.4238,0.14
121,0.424,0.083
122,0.4242,0.163
123,0.4244,0.146
124,0.4246,0.111
125,0.4248,0.111
126,0.425,0.037
127,0.4252,-1.176
128,0.4254,-1.232
129,0.4256,-0.958
130,0.4258,-0.928
131,0.426,-0.367
132,0.4262,0.178
133,0.4264,0.094
134,0.4266,0.069
135,0.4268,0.24
136,0.427,0.075
137,0.4272,0.095
138,0.4274,0.18
139,0.4276,0.175
140,0.4278,0.038
141,0.428,0.17
142,0.4282,0.195
143,0.4284,0.045
144,0.4286,0.148
145,0.4288,0.161
146,0.429,0.123
147,0.4292,0.101
148,0.4294,0.16
149,0.4296,0.14
150,0.4298,0.12
151,0.43,-0.636
152,0.4302,-1.011
153,0.4304,-1.225
154,0.4306,-0.854
155,0.4308,-0.638
156,0.431,-0.143
157,0.4312,0.287
158,0.4314,0.064
159,0.4316,0.085
160,0.4318,0.167
161,0.432,0.159
162,0.4322,0.091
163,0.4324,0.13
164,0.4326,0.173
165,0.4328,0.102
166,0.433,0.16
167,0.4332,0.092
168,0.4334,0.159
169,0.4336,0.15
170,0.4338,0.075
171,0.434,0.157
172,0.4342,0.157
173,0.4344,0.113
174,0.4346,0.096
175,0.4348,0.114
176,0.435,-1.157
177,0.4352,-1.165
178,0.4354,-0.973
179,0.4356,-0.882
180,0.4358,-0.367
181,0.436,0.125
182,0.4362,0.126
183,0.4364,0.088
184,0.4366,0.205
185,0.4368,0.077
186,0.437,0.125
187,0.4372,0.169
188,0.4374,0.154
189,0.4376,0.057
190,0.4378,0.178
191,0.438,0.18
192,0.4382,0.04
193,0.4384,0.166
194,0.4386,0.16
195,0.4388,0.105
196,0.439,0.108
197,0.4392,0.175
198,0.4394,0.131
199,0.4396,0.105
200,0.4398,-0.776
201,0.44,-1.024
202,0.4402,-1.215
203,0.4404,-0.894
204,0.4406,-0.617
205,0.4408,-0.109
206,0.441,0.275
207,0.4412,0.046
208,0.4414,0.103
209,0.4416,0.168
210,0.4418,0.15
211,0.442,0.092
212,0.4422,0.14
213,0.4424,0.167
214,0.4426,0.096
215,0.4428,0.165
216,0.443,0.091
217,0.4432,0.16
218,0.4434,0.142
219,0.4436,0.08
220,0.4438,0.163
221,0.444,0.149
222,0.4442,0.114
223,0.4444,0.106
224,0.4446,0.095
225,0.4448,-1.166
226,0.445,-1.17
227,0.4452,-0.957
228,0.4454,-0.857
229,0.4456,-0.352
230,0.4458,0.129
231,0.446,0.123
232,0.4462,0.087
233,0.4464,0.209
234,0.4466,0.069
235,0.4468,0.129
236,0.447,0.167
237,0.4472,0.153
238,0.4474,0.06
239,0.4476,0.174
240,0.4478,0.182
241,0.448,0.038
242,0.4482,0.167
243,0.4484,0.16
244,0.4486,0.106
245,0.4488,0.109
246,0.449,0.167
247,0.4492,0.133
248,0.4494,0.103
249,0.4496,-0.642
250,0.4498,-1.02
251,0.45,-1.236
252,0.4502,-0.875
253,0.4504,-0.661
254,0.4506,-0.145
255,0.4508,0.302
256,0.451,0.03
257,0.4512,0.079
258,0.4514,0.205
259,0.4516,0.15
260,0.4518,0.066
261,0.452,0.148
262,0.4522,0.194
263,0.4524,0.077
264,0.4526,0.152
265,0.4528,0.121
266,0.453,0.15
267,0.4532,0.127
268,0.4534,0.09
269,0.4536,0.173
270,0.4538,0.138
271,0.454,0.107
272,0.4542,0.119
273,0.4544,-0.106
274,0.4546,-1.126
275,0.4548,-1.283
276,0.455,-0.94
277,0.4552,-0.88
278,0.4554,-0.289
279,0.4556,0.219
280,0.4558,0.081
281,0.456,0.067
282,0.4562,0.234
283,0.4564,0.093
284,0.4566,0.083
285,0.4568,0.18
286,0.457,0.175
287,0.4572,0.048
288,0.4574,0.168
289,0.4576,0.174
290,0.4578,0.075
291,0.458,0.146
292,0.4582,0.141
293,0.4584,0.133
294,0.4586,0.114
295,0.4588,0.146
296,0.459,0.131
297,0.4592,0.142
298,0.4594,-0.552
299,0.4596,-1.014
300,0.4598,-1.19
301,0.46,-0.824
302,0.4602,-0.625
303,0.4604,-0.1
304,0.4606,0.266
305,0.4608,0.058
306,0.461,0.096
307,0.4612,0.173
308,0.4614,0.149
309,0.4616,0.088
310,0.4618,0.148
311,0.462,0.163
312,0.4622,0.096
313,0.4624,0.167
314,0.4626,0.096
315,0.4628,0.151
316,0.463,0.142
317,0.4632,0.091
318,0.4634,0.154
319,0.4636,0.15
320,0.4638,0.119
321,0.464,0.105
322,0.4642,0.049
323,0.4644,-1.183
324,0.4646,-1.214
325,0.4648,-0.961
326,0.465,-0.895
327,0.4652,-0.343
328,0.4654,0.16
329,0.4656,0.1
330,0.4658,0.077
331,0.466,0.231
332,0.4662,0.079
333,0.4664,0.095
334,0.4666,0.185
335,0.4668,0.166
336,0.467,0.043
337,0.4672,0.172
338,0.4674,0.193
339,0.4676,0.046
340,0.4678,0.149
341,0.468,0.161
342,0.4682,0.121
343,0.4684,0.102
344,0.4686,0.161
345,0.4688,0.142
346,0.469,0.11
347,0.4692,-0.974
348,0.4694,-1.056
349,0.4696,-1.186
350,0.4698,-0.923
351,0.47,-0.553
352,0.4702,-0.07
353,0.4704,0.268
354,0.4706,0.057
355,0.4708,0.106
356,0.471,0.15
357,0.4712,0.161
358,0.4714,0.103
359,0.4716,0.126
360,0.4718,0.158
361,0.472,0.123
362,0.4722,0.151
363,0.4724,0.078
364,0.4726,0.178
365,0.4728,0.143
366,0.473,0.071
367,0.4732,0.165
368,0.4734,0.161
369,0.4736,0.104
370,0.4738,0.103
371,0.474,0.066
372,0.4742,-1.15
373,0.4744,-1.17
374,0.4746,-0.902
375,0.4748,-0.848
376,0.475,-0.291
377,0.4752,0.188
378,0.4754,0.11
379,0.4756,0.058
380,0.4758,0.231
381,0.476,0.087
382,0.4762,0.102
383,0.4764,0.166
384,0.4766,0.171
385,0.4768,0.056
386,0.477,0.163
387,0.4772,0.179
388,0.4774,0.062
389,0.4776,0.152
390,0.4778,0.146
391,0.478,0.123
392,0.4782,0.115
393,0.4784,0.151
394,0.4786,0.13
395,0.4788,0.129
396,0.479,-0.856
397,0.4792,-1.04
398,0.4794,-1.188
399,0.4796,-0.894
400,0.4798,-0.577
401,0.48,-0.06
402,0.4802,0.257
403,0.4804,0.049
404,0.4806,0.123
405,0.4808,0.15
406,0.481,0.148
407,0.4812,0.102
408,0.4814,0.146
409,0.4816,0.146
410,0.4818,0.109
411,0.482,0.172
412,0.4822,0.077
413,0.4824,0.161
414,0.4826,0.15
415,0.4828,0.082
416,0.483,0.153
417,0.4832,0.154
418,0.4834,0.117
419,0.4836,0.103
420,0.4838,-0.056
421,0.484,-1.14
422,0.4842,-1.262
423,0.4844,-0.919
424,0.4846,-0.853
425,0.4848,-0.288
426,0.485,0.21
427,0.4852,0.074
428,0.4854,0.08
429,0.4856,0.238
430,0.4858,0.077
431,0.486,0.093
432,0.4862,0.182
433,0.4864,0.172
434,0.4866,0.043
435,0.4868,0.175
436,0.487,0.179
437,0.4872,0.062
438,0.4874,0.148
439,0.4876,0.146
440,0.4878,0.132
441,0.488,0.107
442,0.4882,0.151
443,0.4884,0.138
444,0.4886,0.129
445,0.4888,-0.915
446,0.489,-1.023
447,0.4892,-1.152
448,0.4894,-0.875
449,0.4896,-0.549
450,0.4898,-0.057
451,0.49,0.246
452,0.4902,0.076
453,0.4904,0.126
454,0.4906,0.119
455,0.4908,0.165
456,0.491,0.121
457,0.4912,0.127
458,0.4914,0.133
459,0.4916,0.139
460,0.4918,0.174
461,0.492,0.048
462,0.4922,0.178
463,0.4924,0.159
464,0.4926,0.07
465,0.4928,0.141
466,0.493,0.174
467,0.4932,0.119
468,0.4934,0.085
469,0.4936,-0.117
470,0.4938,-1.125
471,0.494,-1.268
472,0.4942,-0.907
473,0.4944,-0.856
474,0.4946,-0.276
475,0.4948,0.234
476,0.495,0.075
477,0.4952,0.066
478,0.4954,0.234
479,0.4956,0.096
480,0.4958,0.084
481,0.496,0.171
482,0.4962,0.178
483,0.4964,0.048
484,0.4966,0.169
485,0.4968,0.165
486,0.497,0.081
487,0.4972,0.148
488,0.4974,0.131
489,0.4976,0.14
490,0.4978,0.115
491,0.498,0.142
492,0.4982,0.128
493,0.4984,0.136
494,0.4986,-1.045
495,0.4988,-1.061
496,0.499,-1.106
497,0.4992,-0.883
498,0.4994,-0.465
499,0.4996,0.007
500,0.4998,0.226
501,0.5,0.058
502,0.5002,0.152
503,0.5004,0.114
504,0.5006,0.151
505,0.5008,0.128
506,0.501,0.135
507,0.5012,0.123
508,0.5014,0.14
509,0.5016,0.173
510,0.5018,0.054
511,0.502,0.177
512,0.5022,0.154
513,0.5024,0.077
514,0.5026,0.146
515,0.5028,0.165
516,0.503,0.119
517,0.5032,0.099
518,0.5034,-0.15
519,0.5036,-1.096
520,0.5038,-1.266
521,0.504,-0.883
522,0.5042,-0.801
523,0.5044,-0.226
524,0.5046,0.238
525,0.5048,0.05
526,0.505,0.087
527,0.5052,0.228
528,0.5054,0.093
529,0.5056,0.082
530,0.5058,0.18
531,0.506,0.175
532,0.5062,0.043
533,0.5064,0.175
534,0.5066,0.163
535,0.5068,0.083
536,0.507,0.142
537,0.5072,0.133
538,0.5074,0.142
539,0.5076,0.109
540,0.5078,0.142
541,0.508,0.131
542,0.5082,0.119
543,0.5084,-1.129
544,0.5086,-1.111
545,0.5088,-1.083
546,0.509,-0.922
547,0.5092,-0.48
548,0.5094,0.022
549,0.5096,0.188
550,0.5098,0.08
551,0.51,0.18
552,0.5102,0.075
553,0.5104,0.15
554,0.5106,0.154
555,0.5108,0.133
556,0.511,0.088
557,0.5112,0.16
558,0.5114,0.193
559,0.5116,0.024
560,0.5118,0.174
561,0.512,0.175
562,0.5122,0.081
563,0.5124,0.118
564,0.5126,0.179
565,0.5128,0.133
566,0.513,0.084
567,0.5132,-0.349
568,0.5134,-1.04
569,0.5136,-1.271
570,0.5138,-0.866
571,0.514,-0.749
572,0.5142,-0.207
573,0.5144,0.276
574,0.5146,0.059
575,0.5148,0.066
576,0.515,0.222
577,0.5152,0.125
578,0.5154,0.076
579,0.5156,0.158
580,0.5158,0.186
581,0.516,0.066
582,0.5162,0.159
583,0.5164,0.141
584,0.5166,0.119
585,0.5168,0.139
586,0.517,0.106
587,0.5172,0.159
588,0.5174,0.129
589,0.5176,0.123
590,0.5178,0.12
591,0.518,0.152
592,0.5182,-1.115
593,0.5184,-1.1
594,0.5186,-1.061
595,0.5188,-0.895
596,0.519,-0.419
597,0.5192,0.06
598,0.5194,0.184
599,0.5196,0.072
600,0.5198,0.179
601,0.52,0.092
602,0.5202,0.14
603,0.5204,0.152
604,0.5206,0.14
605,0.5208,0.089
606,0.521,0.159
607,0.5212,0.181
608,0.5214,0.038
609,0.5216,0.171
610,0.5218,0.163
611,0.522,0.082
612,0.5222,0.125
613,0.5224,0.173
614,0.5226,0.123
615,0.5228,0.099
616,0.523,-0.463
617,0.5232,-1.031
618,0.5234,-1.272
619,0.5236,-0.881
620,0.5238,-0.734
621,0.524,-0.171
622,0.5242,0.285
623,0.5244,0.04
624,0.5246,0.075
625,0.5248,0.216
626,0.525,0.129
627,0.5252,0.068
628,0.5254,0.161
629,0.5256,0.186
630,0.5258,0.064
631,0.526,0.161
632,0.5262,0.131
633,0.5264,0.129
634,0.5266,0.135
635,0.5268,0.102
636,0.527,0.163
637,0.5272,0.129
638,0.5274,0.119
639,0.5276,0.121
640,0.5278,0.133
641,0.528,-1.152
642,0.5282,-1.134
643,0.5284,-1.022
644,0.5286,-0.92
645,0.5288,-0.436
646,0.529,0.093
647,0.5292,0.155
648,0.5294,0.068
649,0.5296,0.21
650,0.5298,0.073
651,0.53,0.13
652,0.5302,0.161
653,0.5304,0.157
654,0.5306,0.066
655,0.5308,0.159
656,0.531,0.2
657,0.5312,0.03
658,0.5314,0.162
659,0.5316,0.169
660,0.5318,0.098
661,0.532,0.112
662,0.5322,0.171
663,0.5324,0.135
664,0.5326,0.099
665,0.5328,-0.343
666,0.533,-1.039
667,0.5332,-1.253
668,0.5334,-0.855
669,0.5336,-0.775
670,0.5338,-0.192
671,0.534,0.281
672,0.5342,0.037
673,0.5344,0.081
674,0.5346,0.22
675,0.5348,0.121
676,0.535,0.066
677,0.5352,0.169
678,0.5354,0.188
679,0.5356,0.049
680,0.5358,0.173
681,0.536,0.139
682,0.5362,0.116
683,0.5364,0.135
684,0.5366,0.114
685,0.5368,0.159
686,0.537,0.121
687,0.5372,0.128
688,0.5374,0.121
689,0.5376,0.109
690,0.5378,-1.16
691,0.538,-1.157
692,0.5382,-1.011
693,0.5384,-0.918
694,0.5386,-0.413
695,0.5388,0.105
696,0.539,0.163
697,0.5392,0.062
698,0.5394,0.198
699,0.5396,0.087
700,0.5398,0.129
701,0.54,0.155
702,0.5402,0.15
703,0.5404,0.077
704,0.5406,0.161
705,0.5408,0.182
706,0.541,0.043
707,0.5412,0.169
708,0.5414,0.157
709,0.5416,0.095
710,0.5418,0.123
711,0.542,0.168
712,0.5422,0.125
713,0.5424,0.106
714,0.5426,-0.509
715,0.5428,-1.043
716,0.543,-1.263
717,0.5432,-0.875
718,0.5434,-0.698
719,0.5436,-0.164
720,0.5438,0.274
721,0.544,0.041
722,0.5442,0.085
723,0.5444,0.205
724,0.5446,0.126
725,0.5448,0.08
726,0.545,0.157
727,0.5452,0.179
728,0.5454,0.071
729,0.5456,0.167
730,0.5458,0.123
731,0.546,0.132
732,0.5462,0.14
733,0.5464,0.1
734,0.5466,0.162
735,0.5468,0.131
736,0.547,0.124
737,0.5472,0.119
738,0.5474,0.14
739,0.5476,-1.131
740,0.5478,-1.11
741,0.548,-1.012
742,0.5482,-0.879
743,0.5484,-0.389
744,0.5486,0.066
745,0.5488,0.174
746,0.549,0.08
747,0.5492,0.182
748,0.5494,0.081
749,0.5496,0.144
750,0.5498,0.157
751,0.55,0.133
752,0.5502,0.087
753,0.5504,0.167
754,0.5506,0.177
755,0.5508,0.037
756,0.551,0.176
757,0.5512,0.161
758,0.5514,0.088
759,0.5516,0.123
760,0.5518,0.173
761,0.552,0.125
762,0.5522,0.096
763,0.5524,-0.6
764,0.5526,-1.026
765,0.5528,-1.266
766,0.553,-0.892
767,0.5532,-0.675
768,0.5534,-0.144
769,0.5536,0.269
770,0.5538,0.041
771,0.554,0.094
772,0.5542,0.195
773,0.5544,0.128
774,0.5546,0.084
775,0.5548,0.158
776,0.555,0.17
777,0.5552,0.077
778,0.5554,0.165
779,0.5556,0.119
780,0.5558,0.135
781,0.556,0.142
782,0.5562,0.096
783,0.5564,0.16
784,0.5566,0.137
785,0.5568,0.12
786,0.557,0.12
787,0.5572,0.121
788,0.5574,-1.152
789,0.5576,-1.135
790,0.5578,-0.991
791,0.558,-0.894
792,0.5582,-0.416
793,0.5584,0.104
794,0.5586,0.154
795,0.5588,0.065
796,0.559,0.214
797,0.5592,0.072
798,0.5594,0.131
799,0.5596,0.158
800,0.5598,0.154
801,0.56,0.071
802,0.5602,0.158
803,0.5604,0.193
804,0.5606,0.035
805,0.5608,0.163
806,0.561,0.163
807,0.5612,0.1
808,0.5614,0.114
809,0.5616,0.166
810,0.5618,0.132
811,0.562,0.102
812,0.5622,-0.513
813,0.5624,-1.017
814,0.5626,-1.245
815,0.5628,-0.857
816,0.563,-0.68
817,0.5632,-0.138
818,0.5634,0.273
819,0.5636,0.044
820,0.5638,0.093
821,0.564,0.198
822,0.5642,0.129
823,0.5644,0.081
824,0.5646,0.157
825,0.5648,0.174
826,0.565,0.073
827,0.5652,0.169
828,0.5654,0.118
829,0.5656,0.132
830,0.5658,0.14
831,0.566,0.099
832,0.5662,0.16
833,0.5664,0.133
834,0.5666,0.121
835,0.5668,0.116
836,0.567,0.088
837,0.5672,-1.187
838,0.5674,-1.191
839,0.5676,-0.995
840,0.5678,-0.919
841,0.568,-0.352
842,0.5682,0.131
843,0.5684,0.125
844,0.5686,0.075
845,0.5688,0.216
846,0.569,0.078
847,0.5692,0.106
848,0.5694,0.18
849,0.5696,0.153
850,0.5698,0.058
851,0.57,0.17
852,0.5702,0.189
853,0.5704,0.041
854,0.5706,0.159
855,0.5708,0.163
856,0.571,0.104
857,0.5712,0.112
858,0.5714,0.165
859,0.5716,0.133
860,0.5718,0.108
861,0.572,-0.659
862,0.5722,-1.005
863,0.5724,-1.236
864,0.5726,-0.873
865,0.5728,-0.631
866,0.573,-0.126
867,0.5732,0.27
868,0.5734,0.045
869,0.5736,0.1
870,0.5738,0.182
871,0.574,0.139
872,0.5742,0.09
873,0.5744,0.148
874,0.5746,0.167
875,0.5748,0.091
876,0.575,0.163
877,0.5752,0.106
878,0.5754,0.148
879,0.5756,0.141
880,0.5758,0.09
881,0.576,0.161
882,0.5762,0.142
883,0.5764,0.117
884,0.5766,0.114
885,0.5768,0.115
886,0.577,-1.164
887,0.5772,-1.159
888,0.5774,-0.993
889,0.5776,-0.928
890,0.5778,-0.381
891,0.578,0.119
892,0.5782,0.141
893,0.5784,0.082
894,0.5786,0.195
895,0.5788,0.082
896,0.579,0.126
897,0.5792,0.165
898,0.5794,0.15
899,0.5796,0.065
900,0.5798,0.178
901,0.58,0.175
902,0.5802,0.043
903,0.5804,0.168
904,0.5806,0.161
905,0.5808,0.093
906,0.581,0.116
907,0.5812,0.172
908,0.5814,0.124
909,0.5816,0.106
910,0.5818,-0.638
911,0.582,-1.02
912,0.5822,-1.228
913,0.5824,-0.874
914,0.5826,-0.657
915,0.5828,-0.126
916,0.583,0.274
917,0.5832,0.054
918,0.5834,0.094
919,0.5836,0.177
920,0.5838,0.144
921,0.584,0.087
922,0.5842,0.146
923,0.5844,0.163
924,0.5846,0.094
925,0.5848,0.166
926,0.585,0.094
927,0.5852,0.149
928,0.5854,0.146
929,0.5856,0.083
930,0.5858,0.154
931,0.586,0.15
932,0.5862,0.115
933,0.5864,0.107
934,0.5866,0.094
935,0.5868,-1.172
936,0.587,-1.177
937,0.5872,-0.986
938,0.5874,-0.89
939,0.5876,-0.37
940,0.5878,0.132
941,0.588,0.125
942,0.5882,0.074
943,0.5884,0.226
944,0.5886,0.063
945,0.5888,0.118
946,0.589,0.173
947,0.5892,0.158
948,0.5894,0.054
949,0.5896,0.168
950,0.5898,0.196
951,0.59,0.033
952,0.5902,0.161
953,0.5904,0.165
954,0.5906,0.109
955,0.5908,0.105
956,0.591,0.167
957,0.5912,0.14
958,0.5914,0.104
959,0.5916,-0.585
960,0.5918,-1.021
961,0.592,-1.237
962,0.5922,-0.872
963,0.5924,-0.667
964,0.5926,-0.123
965,0.5928,0.28
966,0.593,0.052
967,0.5932,0.082
968,0.5934,0.19
969,0.5936,0.148
970,0.5938,0.079
971,0.594,0.144
972,0.5942,0.173
973,0.5944,0.09
974,0.5946,0.158
975,0.5948,0.105
976,0.595,0.15
977,0.5952,0.14
978,0.5954,0.085
979,0.5956,0.162
980,0.5958,0.146
981,0.596,0.112
982,0.5962,0.109
983,0.5964,0.044
984,0.5966,-1.175
985,0.5968,-1.224
986,0.597,-0.961
987,0.5972,-0.921
988,0.5974,-0.364
989,0.5976,0.163
990,0.5978,0.096
991,0.598,0.072
992,0.5982,0.241
993,0.5984,0.062
994,0.5986,0.101
995,0.5988,0.186
996,0.599,0.165
997,0.5992,0.038
998,0.5994,0.175
999,0.5996,0.198
1000,0.5998,0.039
1001,0.6,0.152
1002,0.6002,0.165
1003,0.6004,0.117
1004,0.6006,0.1
1005,0.6008,0.161
1006,0.601,0.142
1007,0.6012,0.116
1008,0.6014,-0.623
1009,0.6016,-1.014
1010,0.6018,-1.238
1011,0.602,-0.863
1012,0.6022,-0.662
1013,0.6024,-0.149
1014,0.6026,0.284
1015,0.6028,0.048
1016,0.603,0.091
1017,0.6032,0.18
1018,0.6034,0.149
1019,0.6036,0.082
1020,0.6038,0.144
1021,0.604,0.174
1022,0.6042,0.085
1023,0.6044,0.167
1024,0.6046,0.102
1025,0.6048,0.151
1026,0.605,0.141
1027,0.6052,0.089
1028,0.6054,0.156
1029,0.6056,0.144
1030,0.6058,0.121
1031,0.606,0.106
1032,0.6062,0.095
1033,0.6064,-1.157
1034,0.6066,-1.168
1035,0.6068,-0.955
1036,0.607,-0.872
1037,0.6072,-0.332
1038,0.6074,0.128
1039,0.6076,0.13
1040,0.6078,0.08
1041,0.608,0.204
1042,0.6082,0.084
1043,0.6084,0.115
1044,0.6086,0.173
1045,0.6088,0.149
1046,0.609,0.065
1047,0.6092,0.172
1048,0.6094,0.178
1049,0.6096,0.046
1050,0.6098,0.162
1051,0.61,0.153
1052,0.6102,0.104
1053,0.6104,0.114
1054,0.6106,0.165
1055,0.6108,0.129
1056,0.611,0.112
1057,0.6112,-0.772
1058,0.6114,-1.045
1059,0.6116,-1.231
1060,0.6118,-0.902
1061,0.612,-0.655
1062,0.6122,-0.13
1063,0.6124,0.28
1064,0.6126,0.063
1065,0.6128,0.093
1066,0.613,0.161
1067,0.6132,0.161
1068,0.6134,0.091
1069,0.6136,0.135
1070,0.6138,0.168
1071,0.614,0.106
1072,0.6142,0.161
1073,0.6144,0.083
1074,0.6146,0.163
1075,0.6148,0.146
1076,0.615,0.076
1077,0.6152,0.154
1078,0.6154,0.157
1079,0.6156,0.114
1080,0.6158,0.096
1081,0.616,0.093
1082,0.6162,-1.151
1083,0.6164,-1.175
1084,0.6166,-0.94
1085,0.6168,-0.861
1086,0.617,-0.308
1087,0.6172,0.15
1088,0.6174,0.112
1089,0.6176,0.087
1090,0.6178,0.216
1091,0.618,0.072
1092,0.6182,0.112
1093,0.6184,0.182
1094,0.6186,0.152
1095,0.6188,0.054
1096,0.619,0.181
1097,0.6192,0.182
1098,0.6194,0.043
1099,0.6196,0.161
1100,0.6198,0.161
1101,0.62,0.107
1102,0.6202,0.106
1103,0.6204,0.167
1104,0.6206,0.133
1105,0.6208,0.112
1106,0.621,-0.652
1107,0.6212,-1.015
1108,0.6214,-1.237
1109,0.6216,-0.869
1110,0.6218,-0.674
1111,0.622,-0.14
1112,0.6222,0.278
1113,0.6224,0.057
1114,0.6226,0.093
1115,0.6228,0.168
1116,0.623,0.157
1117,0.6232,0.087
1118,0.6234,0.142
1119,0.6236,0.169
1120,0.6238,0.096
1121,0.624,0.165
1122,0.6242,0.094
1123,0.6244,0.155
1124,0.6246,0.146
1125,0.6248,0.087
1126,0.625,0.153
1127,0.6252,0.154
1128,0.6254,0.116
1129,0.6256,0.104
1130,0.6258,-0.003
1131,0.626,-1.152
1132,0.6262,-1.265
1133,0.6264,-0.98
1134,0.6266,-0.88
1135,0.6268,-0.323
1136,0.627,0.182
1137,0.6272,0.091
1138,0.6274,0.077
1139,0.6276,0.234
1140,0.6278,0.072
1141,0.628,0.101
1142,0.6282,0.18
1143,0.6284,0.165
1144,0.6286,0.047
1145,0.6288,0.171
1146,0.629,0.186
1147,0.6292,0.051
1148,0.6294,0.152
1149,0.6296,0.153
1150,0.6298,0.123
1151,0.63,0.107
1152,0.6302,0.155
1153,0.6304,0.139
1154,0.6306,0.123
1155,0.6308,-0.623
1156,0.631,-1.005
1157,0.6312,-1.197
1158,0.6314,-0.844
1159,0.6316,-0.625
1160,0.6318,-0.102
1161,0.632,0.278
1162,0.6322,0.049
1163,0.6324,0.101
1164,0.6326,0.168
1165,0.6328,0.149
1166,0.633,0.091
1167,0.6332,0.144
1168,0.6334,0.161
1169,0.6336,0.096
1170,0.6338,0.165
1171,0.634,0.093
1172,0.6342,0.151
1173,0.6344,0.148
1174,0.6346,0.085
1175,0.6348,0.152
1176,0.635,0.153
1177,0.6352,0.114
1178,0.6354,0.106
1179,0.6356,0.039
1180,0.6358,-1.171
1181,0.636,-1.222
1182,0.6362,-0.938
1183,0.6364,-0.888
1184,0.6366,-0.342
1185,0.6368,0.19
1186,0.637,0.099
1187,0.6372,0.057
1188,0.6374,0.245
1189,0.6376,0.08
1190,0.6378,0.09
1191,0.638,0.176
1192,0.6382,0.179
1193,0.6384,0.04
1194,0.6386,0.162
1195,0.6388,0.197
1196,0.639,0.05
1197,0.6392,0.146
1198,0.6394,0.155
1199,0.6396,0.127
1200,0.6398,0.104
1201,0.64,0.152
1202,0.6402,0.14
1203,0.6404,0.121
1204,0.6406,-0.944
1205,0.6408,-1.047
1206,0.641,-1.182
1207,0.6412,-0.893
1208,0.6414,-0.541
1209,0.6416,-0.057
1210,0.6418,0.257
1211,0.642,0.056
1212,0.6422,0.12
1213,0.6424,0.142
1214,0.6426,0.158
1215,0.6428,0.106
1216,0.643,0.135
1217,0.6432,0.146
1218,0.6434,0.121
1219,0.6436,0.165
1220,0.6438,0.07
1221,0.644,0.17
1222,0.6442,0.151
1223,0.6444,0.071
1224,0.6446,0.156
1225,0.6448,0.162
1226,0.645,0.112
1227,0.6452,0.1
1228,0.6454,0.052
1229,0.6456,-1.136
1230,0.6458,-1.194
1231,0.646,-0.919
1232,0.6462,-0.857
1233,0.6464,-0.312
1234,0.6466,0.182
1235,0.6468,0.091
1236,0.647,0.087
1237,0.6472,0.224
1238,0.6474,0.075
1239,0.6476,0.105
1240,0.6478,0.176
1241,0.648,0.166
1242,0.6482,0.041
1243,0.6484,0.179
1244,0.6486,0.18
1245,0.6488,0.05
1246,0.649,0.157
1247,0.6492,0.153
1248,0.6494,0.12
1249,0.6496,0.104
1250,0.6498,0.163
1251,0.65,0.133
1252,0.6502,0.11
1253,0.6504,-1.004
1254,0.6506,-1.066
1255,0.6508,-1.154
1256,0.651,-0.909
1257,0.6512,-0.545
1258,0.6514,-0.02
1259,0.6516,0.234
1260,0.6518,0.068
1261,0.652,0.14
1262,0.6522,0.113
1263,0.6524,0.158
1264,0.6526,0.123
1265,0.6528,0.135
1266,0.653,0.121
1267,0.6532,0.138
1268,0.6534,0.18
1269,0.6536,0.047
1270,0.6538,0.175
1271,0.654,0.163
1272,0.6542,0.072
1273,0.6544,0.138
1274,0.6546,0.173
1275,0.6548,0.12
1276,0.655,0.089
1277,0.6552,-0.115
1278,0.6554,-1.123
1279,0.6556,-1.264
1280,0.6558,-0.888
1281,0.656,-0.829
1282,0.6562,-0.24
1283,0.6564,0.229
1284,0.6566,0.076
1285,0.6568,0.063
1286,0.657,0.235
1287,0.6572,0.096
1288,0.6574,0.082
1289,0.6576,0.176
1290,0.6578,0.172
1291,0.658,0.056
1292,0.6582,0.168
1293,0.6584,0.163
1294,0.6586,0.084
1295,0.6588,0.146
1296,0.659,0.129
1297,0.6592,0.14
1298,0.6594,0.119
1299,0.6596,0.14
1300,0.6598,0.129
1301,0.66,0.151
1302,0.6602,-0.776
1303,0.6604,-1.005
1304,0.6606,-1.151
1305,0.6608,-0.837
1306,0.661,-0.576
1307,0.6612,-0.077
1308,0.6614,0.249
1309,0.6616,0.056
1310,0.6618,0.121
1311,0.662,0.153
1312,0.6622,0.142
1313,0.6624,0.104
1314,0.6626,0.15
1315,0.6628,0.142
1316,0.663,0.108
1317,0.6632,0.177
1318,0.6634,0.081
1319,0.6636,0.154
1320,0.6638,0.15
1321,0.664,0.091
1322,0.6642,0.141
1323,0.6644,0.154
1324,0.6646,0.124
1325,0.6648,0.102
1326,0.665,-0.351
1327,0.6652,-1.069
1328,0.6654,-1.33
1329,0.6656,-0.932
1330,0.6658,-0.823
1331,0.666,-0.255
1332,0.6662,0.293
1333,0.6664,0.043
1334,0.6666,0.054
1335,0.6668,0.237
1336,0.667,0.131
1337,0.6672,0.054
1338,0.6674,0.161
1339,0.6676,0.207
1340,0.6678,0.046
1341,0.668,0.15
1342,0.6682,0.161
1343,0.6684,0.113
1344,0.6686,0.129
1345,0.6688,0.11
1346,0.669,0.167
1347,0.6692,0.121
1348,0.6694,0.118
1349,0.6696,0.131
1350,0.6698,0.157
1351,0.67,-1.079
1352,0.6702,-1.072
1353,0.6704,-1.057
1354,0.6706,-0.873
1355,0.6708,-0.451
1356,0.671,0.026
1357,0.6712,0.203
1358,0.6714,0.062
1359,0.6716,0.175
1360,0.6718,0.096
1361,0.672,0.144
1362,0.6722,0.14
1363,0.6724,0.141
1364,0.6726,0.104
1365,0.6728,0.144
1366,0.673,0.188
1367,0.6732,0.043
1368,0.6734,0.171
1369,0.6736,0.16
1370,0.6738,0.084
1371,0.674,0.129
1372,0.6742,0.167
1373,0.6744,0.127
1374,0.6746,0.096
1375,0.6748,-0.152
1376,0.675,-1.088
1377,0.6752,-1.241
1378,0.6754,-0.875
1379,0.6756,-0.796
1380,0.6758,-0.221
1381,0.676,0.238
1382,0.6762,0.068
1383,0.6764,0.075
1384,0.6766,0.223
1385,0.6768,0.103
1386,0.677,0.085
1387,0.6772,0.169
1388,0.6774,0.174
1389,0.6776,0.056
1390,0.6778,0.169
1391,0.678,0.153
1392,0.6782,0.09
1393,0.6784,0.146
1394,0.6786,0.121
1395,0.6788,0.141
1396,0.679,0.124
1397,0.6792,0.138
1398,0.6794,0.126
1399,0.6796,0.102
1400,0.6798,-1.167
1401,0.68,-1.171
1402,0.6802,-1.07
1403,0.6804,-0.944
1404,0.6806,-0.438
1405,0.6808,0.063
1406,0.681,0.172
1407,0.6812,0.081
1408,0.6814,0.181
1409,0.6816,0.086
1410,0.6818,0.138
1411,0.682,0.159
1412,0.6822,0.138
1413,0.6824,0.084
1414,0.6826,0.167
1415,0.6828,0.178
1416,0.683,0.039
1417,0.6832,0.17
1418,0.6834,0.163
1419,0.6836,0.087
1420,0.6838,0.123
1421,0.684,0.173
1422,0.6842,0.125
1423,0.6844,0.096
1424,0.6846,-0.262
1425,0.6848,-1.058
1426,0.685,-1.238
1427,0.6852,-0.846
1428,0.6854,-0.732
1429,0.6856,-0.199
1430,0.6858,0.259
1431,0.686,0.053
1432,0.6862,0.079
1433,0.6864,0.224
1434,0.6866,0.11
1435,0.6868,0.081
1436,0.687,0.166
1437,0.6872,0.181
1438,0.6874,0.055
1439,0.6876,0.166
1440,0.6878,0.148
1441,0.688,0.105
1442,0.6882,0.138
1443,0.6884,0.117
1444,0.6886,0.152
1445,0.6888,0.117
1446,0.689,0.131
1447,0.6892,0.127
1448,0.6894,0.131
1449,0.6896,-1.131
1450,0.6898,-1.111
1451,0.69,-1.057
1452,0.6902,-0.918
1453,0.6904,-0.438
1454,0.6906,0.055
1455,0.6908,0.19
1456,0.691,0.056
1457,0.6912,0.175
1458,0.6914,0.114
1459,0.6916,0.129
1460,0.6918,0.14
1461,0.692,0.15
1462,0.6922,0.1
1463,0.6924,0.144
1464,0.6926,0.178
1465,0.6928,0.056
1466,0.693,0.167
1467,0.6932,0.152
1468,0.6934,0.093
1469,0.6936,0.132
1470,0.6938,0.162
1471,0.694,0.12
1472,0.6942,0.107
1473,0.6944,-0.543
1474,0.6946,-1.028
1475,0.6948,-1.282
1476,0.695,-0.896
1477,0.6952,-0.707
1478,0.6954,-0.173
1479,0.6956,0.287
1480,0.6958,0.035
1481,0.696,0.079
1482,0.6962,0.215
1483,0.6964,0.131
1484,0.6966,0.068
1485,0.6968,0.157
1486,0.697,0.188
1487,0.6972,0.068
1488,0.6974,0.156
1489,0.6976,0.133
1490,0.6978,0.135
1491,0.698,0.129
1492,0.6982,0.098
1493,0.6984,0.169
1494,0.6986,0.127
1495,0.6988,0.113
1496,0.699,0.125
1497,0.6992,0.167
1498,0.6994,-1.071
1499,0.6996,-1.06
1500,0.6998,-1.034
1501,0.7,-0.867
1502,0.7002,-0.44
1503,0.7004,0.033
1504,0.7006,0.205
1505,0.7008,0.076
1506,0.701,0.161
1507,0.7012,0.094
1508,0.7014,0.158
1509,0.7016,0.137
1510,0.7018,0.136
1511,0.702,0.106
1512,0.7022,0.156
1513,0.7024,0.174
1514,0.7026,0.043
1515,0.7028,0.18
1516,0.703,0.157
1517,0.7032,0.082
1518,0.7034,0.129
1519,0.7036,0.176
1520,0.7038,0.118
1521,0.704,0.094
1522,0.7042,-0.392
1523,0.7044,-1.046
1524,0.7046,-1.268
1525,0.7048,-0.902
1526,0.705,-0.761
1527,0.7052,-0.2
1528,0.7054,0.279
1529,0.7056,0.028
1530,0.7058,0.079
1531,0.706,0.232
1532,0.7062,0.109
1533,0.7064,0.065
1534,0.7066,0.175
1535,0.7068,0.189
1536,0.707,0.047
1537,0.7072,0.165
1538,0.7074,0.151
1539,0.7076,0.112
1540,0.7078,0.133
1541,0.708,0.112
1542,0.7082,0.167
1543,0.7084,0.115
1544,0.7086,0.125
1545,0.7088,0.133
1546,0.709,0.082
1547,0.7092,-1.178
1548,0.7094,-1.188
1549,0.7096,-1.01
1550,0.7098,-0.911
1551,0.71,-0.362
1552,0.7102,0.108
1553,0.7104,0.146
1554,0.7106,0.075
1555,0.7108,0.205
1556,0.711,0.076
1557,0.7112,0.125
1558,0.7114,0.169
1559,0.7116,0.141
1560,0.7118,0.076
1561,0.712,0.169
1562,0.7122,0.18
1563,0.7124,0.043
1564,0.7126,0.167
1565,0.7128,0.16
1566,0.713,0.096
1567,0.7132,0.121
1568,0.7134,0.166
1569,0.7136,0.131
1570,0.7138,0.108
1571,0.714,-0.275
1572,0.7142,-1.052
1573,0.7144,-1.22
1574,0.7146,-0.84
1575,0.7148,-0.751
1576,0.715,-0.181
1577,0.7152,0.273
1578,0.7154,0.056
1579,0.7156,0.069
1580,0.7158,0.217
1581,0.716,0.125
1582,0.7162,0.077
1583,0.7164,0.157
1584,0.7166,0.186
1585,0.7168,0.064
1586,0.717,0.163
1587,0.7172,0.138
1588,0.7174,0.121
1589,0.7176,0.138
1590,0.7178,0.111
1591,0.718,0.155
1592,0.7182,0.129
1593,0.7184,0.127
1594,0.7186,0.119
1595,0.7188,0.121
1596,0.719,-1.178
1597,0.7192,-1.154
1598,0.7194,-1.028
1599,0.7196,-0.935
1600,0.7198,-0.435
1601,0.72,0.106
1602,0.7202,0.163
1603,0.7204,0.057
1604,0.7206,0.204
1605,0.7208,0.089
1606,0.721,0.121
1607,0.7212,0.154
1608,0.7214,0.161
1609,0.7216,0.07
1610,0.7218,0.157
1611,0.722,0.192
1612,0.7222,0.043
1613,0.7224,0.162
1614,0.7226,0.165
1615,0.7228,0.095
1616,0.723,0.119
1617,0.7232,0.167
1618,0.7234,0.129
1619,0.7236,0.106
1620,0.7238,-0.608
1621,0.724,-1.026
1622,0.7242,-1.254
1623,0.7244,-0.884
1624,0.7246,-0.685
1625,0.7248,-0.169
1626,0.725,0.296
1627,0.7252,0.059
1628,0.7254,0.066
1629,0.7256,0.196
1630,0.7258,0.151
1631,0.726,0.079
1632,0.7262,0.138
1633,0.7264,0.182
1634,0.7266,0.09
1635,0.7268,0.152
1636,0.727,0.108
1637,0.7272,0.152
1638,0.7274,0.14
1639,0.7276,0.081
1640,0.7278,0.166
1641,0.728,0.148
1642,0.7282,0.11
1643,0.7284,0.106
1644,0.7286,0.161
1645,0.7288,-1.12
1646,0.729,-1.093
1647,0.7292,-0.995
1648,0.7294,-0.857
1649,0.7296,-0.388
1650,0.7298,0.06
1651,0.73,0.171
1652,0.7302,0.089
1653,0.7304,0.182
1654,0.7306,0.075
1655,0.7308,0.146
1656,0.731,0.162
1657,0.7312,0.131
1658,0.7314,0.084
1659,0.7316,0.17
1660,0.7318,0.179
1661,0.732,0.034
1662,0.7322,0.175
1663,0.7324,0.167
1664,0.7326,0.087
1665,0.7328,0.119
1666,0.733,0.179
1667,0.7332,0.128
1668,0.7334,0.092
1669,0.7336,-0.697
1670,0.7338,-1.041
1671,0.734,-1.264
1672,0.7342,-0.91
1673,0.7344,-0.7
1674,0.7346,-0.148
1675,0.7348,0.289
1676,0.735,0.058
1677,0.7352,0.084
1678,0.7354,0.172
1679,0.7356,0.157
1680,0.7358,0.087
1681,0.736,0.137
1682,0.7362,0.175
1683,0.7364,0.094
1684,0.7366,0.165
1685,0.7368,0.091
1686,0.737,0.155
1687,0.7372,0.15
1688,0.7374,0.077
1689,0.7376,0.157
1690,0.7378,0.153
1691,0.738,0.116
1692,0.7382,0.099
1693,0.7384,0.121
1694,0.7386,-1.157
1695,0.7388,-1.164
1696,0.739,-0.967
1697,0.7392,-0.875
1698,0.7394,-0.347
1699,0.7396,0.114
1700,0.7398,0.135
1701,0.74,0.085
1702,0.7402,0.212
1703,0.7404,0.066
1704,0.7406,0.127
1705,0.7408,0.176
1706,0.741,0.144
1707,0.7412,0.065
1708,0.7414,0.176
1709,0.7416,0.188
1710,0.7418,0.034
1711,0.742,0.168
1712,0.7422,0.165
1713,0.7424,0.1
1714,0.7426,0.111
1715,0.7428,0.17
1716,0.743,0.133
1717,0.7432,0.101
1718,0.7434,-0.443
1719,0.7436,-1.023
1720,0.7438,-1.23
1721,0.744,-0.836
1722,0.7442,-0.711
1723,0.7444,-0.152
1724,0.7446,0.28
1725,0.7448,0.039
1726,0.745,0.086
1727,0.7452,0.209
1728,0.7454,0.131
1729,0.7456,0.068
1730,0.7458,0.165
1731,0.746,0.182
1732,0.7462,0.062
1733,0.7464,0.17
1734,0.7466,0.127
1735,0.7468,0.129
1736,0.747,0.137
1737,0.7472,0.106
1738,0.7474,0.161
1739,0.7476,0.129
1740,0.7478,0.123
1741,0.748,0.119
1742,0.7482,-0.009
1743,0.7484,-1.188
1744,0.7486,-1.264
1745,0.7488,-0.999
1746,0.749,-0.951
1747,0.7492,-0.337
1748,0.7494,0.179
1749,0.7496,0.096
1750,0.7498,0.074
1751,0.75,0.228
1752,0.7502,0.083
1753,0.7504,0.091
1754,0.7506,0.186
1755,0.7508,0.162
1756,0.751,0.049
1757,0.7512,0.176
1758,0.7514,0.18
1759,0.7516,0.053
1760,0.7518,0.156
1761,0.752,0.152
1762,0.7522,0.119
1763,0.7524,0.113
1764,0.7526,0.153
1765,0.7528,0.138
1766,0.753,0.125
1767,0.7532,-0.567
1768,0.7534,-1.001
1769,0.7536,-1.196
1770,0.7538,-0.82
1771,0.754,-0.638
1772,0.7542,-0.133
1773,0.7544,0.287
1774,0.7546,0.048
1775,0.7548,0.087
1776,0.755,0.185
1777,0.7552,0.15
1778,0.7554,0.079
1779,0.7556,0.144
1780,0.7558,0.178
1781,0.756,0.083
1782,0.7562,0.161
1783,0.7564,0.106
1784,0.7566,0.151
1785,0.7568,0.138
1786,0.757,0.091
1787,0.7572,0.161
1788,0.7574,0.144
1789,0.7576,0.118
1790,0.7578,0.11
1791,0.758,0.067
1792,0.7582,-1.171
1793,0.7584,-1.205
1794,0.7586,-0.953
1795,0.7588,-0.901
1796,0.759,-0.364
1797,0.7592,0.163
1798,0.7594,0.112
1799,0.7596,0.067
1800,0.7598,0.235
1801,0.76,0.075
1802,0.7602,0.101
1803,0.7604,0.177
1804,0.7606,0.17
1805,0.7608,0.045
1806,0.761,0.167
1807,0.7612,0.196
1808,0.7614,0.043
1809,0.7616,0.153
1810,0.7618,0.162
1811,0.762,0.118
1812,0.7622,0.104
1813,0.7624,0.163
1814,0.7626,0.139
1815,0.7628,0.109
1816,0.763,-0.97
1817,0.7632,-1.054
1818,0.7634,-1.194
1819,0.7636,-0.92
1820,0.7638,-0.569
1821,0.764,-0.078
1822,0.7642,0.261
1823,0.7644,0.063
1824,0.7646,0.117
1825,0.7648,0.137
1826,0.765,0.161
1827,0.7652,0.111
1828,0.7654,0.125
1829,0.7656,0.149
1830,0.7658,0.127
1831,0.766,0.162
1832,0.7662,0.065
1833,0.7664,0.176
1834,0.7666,0.152
1835,0.7668,0.068
1836,0.767,0.155
1837,0.7672,0.167
1838,0.7674,0.112
1839,0.7676,0.093
1840,0.7678,0.05
1841,0.768,-1.127
1842,0.7682,-1.188
1843,0.7684,-0.906
1844,0.7686,-0.858
1845,0.7688,-0.308
1846,0.769,0.194
1847,0.7692,0.1
1848,0.7694,0.068
1849,0.7696,0.231
1850,0.7698,0.083
1851,0.77,0.102
1852,0.7702,0.167
1853,0.7704,0.175
1854,0.7706,0.051
1855,0.7708,0.166
1856,0.771,0.18
1857,0.7712,0.06
1858,0.7714,0.15
1859,0.7716,0.144
1860,0.7718,0.126
1861,0.772,0.111
1862,0.7722,0.153
1863,0.7724,0.131
1864,0.7726,0.126
1865,0.7728,-0.883
1866,0.773,-1.026
1867,0.7732,-1.189
1868,0.7734,-0.895
1869,0.7736,-0.564
1870,0.7738,-0.061
1871,0.774,0.266
1872,0.7742,0.056
1873,0.7744,0.117
1874,0.7746,0.142
1875,0.7748,0.161
1876,0.775,0.104
1877,0.7752,0.13
1878,0.7754,0.151
1879,0.7756,0.118
1880,0.7758,0.167
1881,0.776,0.068
1882,0.7762,0.171
1883,0.7764,0.151
1884,0.7766,0.071
1885,0.7768,0.154
1886,0.777,0.163
1887,0.7772,0.111
1888,0.7774,0.098
1889,0.7776,-0.108
1890,0.7778,-1.131
1891,0.778,-1.279
1892,0.7782,-0.913
1893,0.7784,-0.864
1894,0.7786,-0.265
1895,0.7788,0.223
1896,0.779,0.075
1897,0.7792,0.067
1898,0.7794,0.238
1899,0.7796,0.091
1900,0.7798,0.084
1901,0.78,0.181
1902,0.7802,0.173
1903,0.7804,0.051
1904,0.7806,0.168
1905,0.7808,0.171
1906,0.781,0.076
1907,0.7812,0.148
1908,0.7814,0.133
1909,0.7816,0.137
1910,0.7818,0.114
1911,0.782,0.141
1912,0.7822,0.133
1913,0.7824,0.144
1914,0.7826,-0.754
1915,0.7828,-1.004
1916,0.783,-1.169
1917,0.7832,-0.836
1918,0.7834,-0.577
1919,0.7836,-0.058
1920,0.7838,0.266
1921,0.784,0.044
1922,0.7842,0.119
1923,0.7844,0.155
1924,0.7846,0.156
1925,0.7848,0.09
1926,0.785,0.149
1927,0.7852,0.152
1928,0.7854,0.104
1929,0.7856,0.17
1930,0.7858,0.082
1931,0.786,0.163
1932,0.7862,0.142
1933,0.7864,0.087
1934,0.7866,0.152
1935,0.7868,0.153
1936,0.787,0.114
1937,0.7872,0.107
1938,0.7874,-0.091
1939,0.7876,-1.125
1940,0.7878,-1.263
1941,0.788,-0.919
1942,0.7882,-0.856
1943,0.7884,-0.279
1944,0.7886,0.222
1945,0.7888,0.063
1946,0.789,0.075
1947,0.7892,0.243
1948,0.7894,0.087
1949,0.7896,0.077
1950,0.7898,0.187
1951,0.79,0.182
1952,0.7902,0.036
1953,0.7904,0.172
1954,0.7906,0.182
1955,0.7908,0.069
1956,0.791,0.14
1957,0.7912,0.142
1958,0.7914,0.146
1959,0.7916,0.102
1960,0.7918,0.148
1961,0.792,0.14
1962,0.7922,0.13
1963,0.7924,-1.014
1964,0.7926,-1.056
1965,0.7928,-1.17
1966,0.793,-0.942
1967,0.7932,-0.524
1968,0.7934,-0.04
1969,0.7936,0.244
1970,0.7938,0.075
1971,0.794,0.123
1972,0.7942,0.123
1973,0.7944,0.163
1974,0.7946,0.124
1975,0.7948,0.121
1976,0.795,0.136
1977,0.7952,0.146
1978,0.7954,0.161
1979,0.7956,0.054
1980,0.7958,0.184
1981,0.796,0.155
1982,0.7962,0.066
1983,0.7964,0.15
1984,0.7966,0.174
1985,0.7968,0.11
1986,0.797,0.093
1987,0.7972,0.008
1988,0.7974,-1.121
1989,0.7976,-1.195
1990,0.7978,-0.892
1991,0.798,-0.852
1992,0.7982,-0.24
1993,0.7984,0.219
1994,0.7986,0.081
1995,0.7988,0.073
1996,0.799,0.226
1997,0.7992,0.096
1998,0.7994,0.087
1999,0.7996,0.178
2000,0.7998,0.171
1,0.8,0.049
2,0.8002,0.175
3,0.8004,0.166
4,0.8006,0.072
5,0.8008,0.148
6,0.801,0.142
7,0.8012,0.129
8,0.8014,0.119
9,0.8016,0.148
10,0.8018,0.128
11,0.802,0.132
12,0.8022,-1.04
13,0.8024,-1.081
14,0.8026,-1.143
15,0.8028,-0.917
16,0.803,-0.535
17,0.8032,-0.019
18,0.8034,0.236
19,0.8036,0.062
20,0.8038,0.149
21,0.804,0.108
22,0.8042,0.157
23,0.8044,0.127
24,0.8046,0.131
25,0.8048,0.125
26,0.805,0.138
27,0.8052,0.178
28,0.8054,0.046
29,0.8056,0.175
30,0.8058,0.163
31,0.806,0.073
32,0.8062,0.142
33,0.8064,0.173
34,0.8066,0.12
35,0.8068,0.092
36,0.807,-0.105
37,0.8072,-1.098
38,0.8074,-1.249
39,0.8076,-0.882
40,0.8078,-0.808
41,0.808,-0.245
42,0.8082,0.225
43,0.8084,0.065
44,0.8086,0.08
45,0.8088,0.232
46,0.809,0.091
47,0.8092,0.086
48,0.8094,0.18
49,0.8096,0.173
50,0.8098,0.048
51,0.81,0.171
52,0.8102,0.169
53,0.8104,0.076
54,0.8106,0.146
55,0.8108,0.136
56,0.811,0.14
57,0.8112,0.111
58,0.8114,0.144
59,0.8116,0.136
60,0.8118,0.124
61,0.812,-1.081
62,0.8122,-1.086
63,0.8124,-1.107
64,0.8126,-0.921
65,0.8128,-0.483
66,0.813,0.007
67,0.8132,0.216
68,0.8134,0.08
69,0.8136,0.149
70,0.8138,0.102
71,0.814,0.158
72,0.8142,0.141
73,0.8144,0.124
74,0.8146,0.112
75,0.8148,0.161
76,0.815,0.169
77,0.8152,0.04
78,0.8154,0.182
79,0.8156,0.163
80,0.8158,0.069
81,0.816,0.137
82,0.8162,0.178
83,0.8164,0.117
84,0.8166,0.091
85,0.8168,-0.361
86,0.817,-1.053
87,0.8172,-1.292
88,0.8174,-0.894
89,0.8176,-0.8
90,0.8178,-0.216
91,0.818,0.279
92,0.8182,0.046
93,0.8184,0.068
94,0.8186,0.227
95,0.8188,0.123
96,0.819,0.067
97,0.8192,0.167
98,0.8194,0.188
99,0.8196,0.055
100,0.8198,0.165
101,0.82,0.139
102,0.8202,0.119
103,0.8204,0.136
104,0.8206,0.109
105,0.8208,0.16
106,0.821,0.126
107,0.8212,0.125
108,0.8214,0.121
109,0.8216,0.171
110,0.8218,-0.96
111,0.822,-1.023
112,0.8222,-1.081
113,0.8224,-0.835
114,0.8226,-0.468
115,0.8228,0.014
116,0.823,0.222
117,0.8232,0.062
118,0.8234,0.153
119,0.8236,0.118
120,0.8238,0.149
121,0.824,0.123
122,0.8242,0.148
123,0.8244,0.117
124,0.8246,0.135
125,0.8248,0.18
126,0.825,0.056
127,0.8252,0.171
128,0.8254,0.153
129,0.8256,0.088
130,0.8258,0.137
131,0.826,0.163
132,0.8262,0.121
133,0.8264,0.1
134,0.8266,-0.308
135,0.8268,-1.086
136,0.827,-1.288
137,0.8272,-0.9
138,0.8274,-0.797
139,0.8276,-0.202
140,0.8278,0.266
141,0.828,0.043
142,0.8282,0.07
143,0.8284,0.234
144,0.8286,0.114
145,0.8288,0.062
146,0.829,0.178
147,0.8292,0.186
148,0.8294,0.05
149,0.8296,0.166
150,0.8298,0.152
151,0.83,0.108
152,0.8302,0.135
153,0.8304,0.115
154,0.8306,0.162
155,0.8308,0.119
156,0.831,0.125
157,0.8312,0.13
158,0.8314,0.111
159,0.8316,-1.159
160,0.8318,-1.159
161,0.832,-1.046
162,0.8322,-0.923
163,0.8324,-0.404
164,0.8326,0.096
165,0.8328,0.15
166,0.833,0.07
167,0.8332,0.203
168,0.8334,0.089
169,0.8336,0.115
170,0.8338,0.168
171,0.834,0.155
172,0.8342,0.068
173,0.8344,0.16
174,0.8346,0.189
175,0.8348,0.044
176,0.835,0.159
177,0.8352,0.166
178,0.8354,0.1
179,0.8356,0.118
180,0.8358,0.166
181,0.836,0.135
182,0.8362,0.105
183,0.8364,-0.306
184,0.8366,-1.029
185,0.8368,-1.24
186,0.837,-0.878
187,0.8372,-0.751
188,0.8374,-0.19
189,0.8376,0.276
190,0.8378,0.043
191,0.838,0.076
192,0.8382,0.222
193,0.8384,0.119
194,0.8386,0.071
195,0.8388,0.165
196,0.839,0.188
197,0.8392,0.059
198,0.8394,0.162
199,0.8396,0.148
200,0.8398,0.114
201,0.84,0.135
202,0.8402,0.112
203,0.8404,0.161
204,0.8406,0.124
205,0.8408,0.121
206,0.841,0.128
207,0.8412,0.107
208,0.8414,-1.174
209,0.8416,-1.163
210,0.8418,-1.018
211,0.842,-0.915
212,0.8422,-0.402
213,0.8424,0.106
214,0.8426,0.158
215,0.8428,0.062
216,0.843,0.212
217,0.8432,0.077
218,0.8434,0.124
219,0.8436,0.165
220,0.8438,0.15
221,0.844,0.074
222,0.8442,0.16
223,0.8444,0.194
224,0.8446,0.039
225,0.8448,0.163
226,0.845,0.165
227,0.8452,0.1
228,0.8454,0.119
229,0.8456,0.167
230,0.8458,0.132
231,0.846,0.106
232,0.8462,-0.509
233,0.8464,-1.04
234,0.8466,-1.263
235,0.8468,-0.872
236,0.847,-0.711
237,0.8472,-0.134
238,0.8474,0.283
239,0.8476,0.033
240,0.8478,0.088
241,0.848,0.207
242,0.8482,0.138
243,0.8484,0.063
244,0.8486,0.169
245,0.8488,0.18
246,0.849,0.064
247,0.8492,0.168
248,0.8494,0.124
249,0.8496,0.135
250,0.8498,0.133
251,0.85,0.101
252,0.8502,0.165
253,0.8504,0.13
254,0.8506,0.118
255,0.8508,0.121
256,0.851,0.105
257,0.8512,-1.165
258,0.8514,-1.166
259,0.8516,-0.997
260,0.8518,-0.917
261,0.852,-0.4
262,0.8522,0.142
263,0.8524,0.136
264,0.8526,0.069
265,0.8528,0.213
266,0.853,0.082
267,0.8532,0.116
268,0.8534,0.165
269,0.8536,0.167
270,0.8538,0.056
271,0.854,0.169
272,0.8542,0.188
273,0.8544,0.041
274,0.8546,0.162
275,0.8548,0.16
276,0.855,0.104
277,0.8552,0.112
278,0.8554,0.169
279,0.8556,0.129
280,0.8558,0.109
281,0.856,-0.703
282,0.8562,-1.026
283,0.8564,-1.23
284,0.8566,-0.886
285,0.8568,-0.627
286,0.857,-0.106
287,0.8572,0.278
288,0.8574,0.045
289,0.8576,0.102
290,0.8578,0.178
291,0.858,0.142
292,0.8582,0.089
293,0.8584,0.144
294,0.8586,0.166
295,0.8588,0.091
296,0.859,0.167
297,0.8592,0.099
298,0.8594,0.153
299,0.8596,0.142
300,0.8598,0.086
301,0.86,0.161
302,0.8602,0.144
303,0.8604,0.116
304,0.8606,0.108
305,0.8608,0.125
306,0.861,-1.16
307,0.8612,-1.143
308,0.8614,-0.959
309,0.8616,-0.892
310,0.8618,-0.356
311,0.862,0.127
312,0.8622,0.141
313,0.8624,0.067
314,0.8626,0.215
315,0.8628,0.079
316,0.863,0.119
317,0.8632,0.167
318,0.8634,0.156
319,0.8636,0.064
320,0.8638,0.167
321,0.864,0.187
322,0.8642,0.043
323,0.8644,0.163
324,0.8646,0.161
325,0.8648,0.103
326,0.865,0.116
327,0.8652,0.165
328,0.8654,0.131
329,0.8656,0.11
330,0.8658,-0.671
331,0.866,-1.018
332,0.8662,-1.241
333,0.8664,-0.881
334,0.8666,-0.662
335,0.8668,-0.117
336,0.867,0.266
337,0.8672,0.038
338,0.8674,0.112
339,0.8676,0.184
340,0.8678,0.129
341,0.868,0.09
342,0.8682,0.162
343,0.8684,0.158
344,0.8686,0.085
345,0.8688,0.177
346,0.869,0.103
347,0.8692,0.138
348,0.8694,0.146
349,0.8696,0.093
350,0.8698,0.155
351,0.87,0.142
352,0.8702,0.123
353,0.8704,0.112
354,0.8706,0.018
355,0.8708,-1.158
356,0.871,-1.233
357,0.8712,-0.957
358,0.8714,-0.909
359,0.8716,-0.339
360,0.8718,0.19
361,0.872,0.096
362,0.8722,0.052
363,0.8724,0.253
364,0.8726,0.072
365,0.8728,0.093
366,0.873,0.177
367,0.8732,0.178
368,0.8734,0.046
369,0.8736,0.156
370,0.8738,0.199
371,0.874,0.054
372,0.8742,0.146
373,0.8744,0.152
374,0.8746,0.129
375,0.8748,0.106
376,0.875,0.146
377,0.8752,0.142
378,0.8754,0.127
379,0.8756,-0.599
380,0.8758,-1.003
381,0.876,-1.201
382,0.8762,-0.843
383,0.8764,-0.64
384,0.8766,-0.109
385,0.8768,0.274
386,0.877,0.045
387,0.8772,0.098
388,0.8774,0.18
389,0.8776,0.142
390,0.8778,0.082
391,0.878,0.152
392,0.8782,0.166
393,0.8784,0.087
394,0.8786,0.168
395,0.8788,0.103
396,0.879,0.148
397,0.8792,0.141
398,0.8794,0.093
399,0.8796,0.155
400,0.8798,0.144
401,0.88,0.118
402,0.8802,0.111
403,0.8804,0.05
404,0.8806,-1.173
405,0.8808,-1.215
406,0.881,-0.954
407,0.8812,-0.92
408,0.8814,-0.356
409,0.8816,0.171
410,0.8818,0.112
411,0.882,0.064
412,0.8822,0.226
413,0.8824,0.087
414,0.8826,0.101
415,0.8828,0.172
416,0.883,0.171
417,0.8832,0.049
418,0.8834,0.17
419,0.8836,0.185
420,0.8838,0.054
421,0.884,0.155
422,0.8842,0.154
423,0.8844,0.116
424,0.8846,0.111
425,0.8848,0.16
426,0.885,0.129
427,0.8852,0.119
428,0.8854,-0.948
429,0.8856,-1.047
430,0.8858,-1.188
431,0.886,-0.907
432,0.8862,-0.549
433,0.8864,-0.045
434,0.8866,0.253
435,0.8868,0.066
436,0.887,0.123
437,0.8872,0.13
438,0.8874,0.157
439,0.8876,0.114
440,0.8878,0.129
441,0.888,0.137
442,0.8882,0.133
443,0.8884,0.168
444,0.8886,0.056
445,0.8888,0.174
446,0.889,0.157
447,0.8892,0.065
448,0.8894,0.149
449,0.8896,0.169
450,0.8898,0.113
451,0.89,0.093
452,0.8902,0.043
453,0.8904,-1.152
454,0.8906,-1.204
455,0.8908,-0.917
456,0.891,-0.857
457,0.8912,-0.293
458,0.8914,0.186
459,0.8916,0.103
460,0.8918,0.072
461,0.892,0.216
462,0.8922,0.094
463,0.8924,0.101
464,0.8926,0.166
465,0.8928,0.169
466,0.893,0.058
467,0.8932,0.169
468,0.8934,0.169
469,0.8936,0.065
470,0.8938,0.157
471,0.894,0.139
472,0.8942,0.123
473,0.8944,0.118
474,0.8946,0.151
475,0.8948,0.129
476,0.895,0.123
477,0.8952,-0.997
478,0.8954,-1.06
479,0.8956,-1.154
480,0.8958,-0.915
481,0.896,-0.544
482,0.8962,-0.042
483,0.8964,0.238
484,0.8966,0.067
485,0.8968,0.137
486,0.897,0.123
487,0.8972,0.153
488,0.8974,0.129
489,0.8976,0.131
490,0.8978,0.128
491,0.898,0.138
492,0.8982,0.173
493,0.8984,0.055
494,0.8986,0.17
495,0.8988,0.162
496,0.899,0.074
497,0.8992,0.14
498,0.8994,0.169
499,0.8996,0.117
500,0.8998,0.093
501,0.9,-0.14
502,0.9002,-1.092
503,0.9004,-1.264
504,0.9006,-0.888
505,0.9008,-0.816
506,0.901,-0.243
507,0.9012,0.236
508,0.9014,0.056
509,0.9016,0.076
510,0.9018,0.243
511,0.902,0.091
512,0.9022,0.077
513,0.9024,0.182
514,0.9026,0.18
515,0.9028,0.041
516,0.903,0.169
517,0.9032,0.173
518,0.9034,0.085
519,0.9036,0.138
520,0.9038,0.137
521,0.904,0.148
522,0.9042,0.106
523,0.9044,0.138
524,0.9046,0.14
525,0.9048,0.144
526,0.905,-0.868
527,0.9052,-1.009
528,0.9054,-1.146
529,0.9056,-0.859
530,0.9058,-0.545
531,0.906,-0.046
532,0.9062,0.263
533,0.9064,0.057
534,0.9066,0.114
535,0.9068,0.148
536,0.907,0.161
537,0.9072,0.103
538,0.9074,0.135
539,0.9076,0.15
540,0.9078,0.121
541,0.908,0.16
542,0.9082,0.072
543,0.9084,0.175
544,0.9086,0.146
545,0.9088,0.076
546,0.909,0.157
547,0.9092,0.163
548,0.9094,0.11
549,0.9096,0.103
550,0.9098,-0.276
551,0.91,-1.091
552,0.9102,-1.304
553,0.9104,-0.913
554,0.9106,-0.814
555,0.9108,-0.206
556,0.911,0.259
557,0.9112,0.055
558,0.9114,0.069
559,0.9116,0.23
560,0.9118,0.113
561,0.912,0.068
562,0.9122,0.175
563,0.9124,0.178
564,0.9126,0.058
565,0.9128,0.165
566,0.913,0.153
567,0.9132,0.105
568,0.9134,0.139
569,0.9136,0.119
570,0.9138,0.152
571,0.914,0.125
572,0.9142,0.128
573,0.9144,0.128
574,0.9146,0.15
575,0.9148,-1.05
576,0.915,-1.064
577,0.9152,-1.089
578,0.9154,-0.893
579,0.9156,-0.484
580,0.9158,0.018
581,0.916,0.203
582,0.9162,0.069
583,0.9164,0.169
584,0.9166,0.093
585,0.9168,0.15
586,0.917,0.14
587,0.9172,0.14
588,0.9174,0.102
589,0.9176,0.146
590,0.9178,0.186
591,0.918,0.039
592,0.9182,0.172
593,0.9184,0.163
594,0.9186,0.085
595,0.9188,0.128
596,0.919,0.171
597,0.9192,0.128
598,0.9194,0.091
599,0.9196,-0.206
600,0.9198,-1.073
601,0.92,-1.262
602,0.9202,-0.871
603,0.9204,-0.8
604,0.9206,-0.244
605,0.9208,0.26
606,0.921,0.062
607,0.9212,0.064
608,0.9214,0.234
609,0.9216,0.108
610,0.9218,0.075
611,0.922,0.167
612,0.9222,0.189
613,0.9224,0.049
614,0.9226,0.163
615,0.9228,0.16
616,0.923,0.1
617,0.9232,0.136
618,0.9234,0.125
619,0.9236,0.15
620,0.9238,0.119
621,0.924,0.132
622,0.9242,0.128
623,0.9244,0.096
624,0.9246,-1.173
625,0.9248,-1.174
626,0.925,-1.028
627,0.9252,-0.919
628,0.9254,-0.399
629,0.9256,0.09
630,0.9258,0.157
631,0.926,0.076
632,0.9262,0.2
633,0.9264,0.077
634,0.9266,0.125
635,0.9268,0.169
636,0.927,0.144
637,0.9272,0.074
638,0.9274,0.165
639,0.9276,0.189
640,0.9278,0.034
641,0.928,0.167
642,0.9282,0.167
643,0.9284,0.093
644,0.9286,0.118
645,0.9288,0.169
646,0.929,0.131
647,0.9292,0.101
648,0.9294,-0.36
649,0.9296,-1.039
650,0.9298,-1.256
651,0.93,-0.857
652,0.9302,-0.735
653,0.9304,-0.194
654,0.9306,0.279
655,0.9308,0.03
656,0.931,0.083
657,0.9312,0.234
658,0.9314,0.11
659,0.9316,0.068
660,0.9318,0.173
661,0.932,0.19
662,0.9322,0.045
663,0.9324,0.167
664,0.9326,0.152
665,0.9328,0.11
666,0.933,0.129
667,0.9332,0.118
668,0.9334,0.163
669,0.9336,0.114
670,0.9338,0.125
671,0.934,0.133
672,0.9342,0.123
673,0.9344,-1.15
674,0.9346,-1.119
675,0.9348,-1.034
676,0.935,-0.904
677,0.9352,-0.405
678,0.9354,0.06
679,0.9356,0.178
680,0.9358,0.081
681,0.936,0.182
682,0.9362,0.079
683,0.9364,0.142
684,0.9366,0.167
685,0.9368,0.13
686,0.937,0.087
687,0.9372,0.17
688,0.9374,0.177
689,0.9376,0.037
690,0.9378,0.174
691,0.938,0.165
692,0.9382,0.083
693,0.9384,0.123
694,0.9386,0.178
695,0.9388,0.124
696,0.939,0.095
697,0.9392,-0.564
698,0.9394,-1.031
699,0.9396,-1.293
700,0.9398,-0.894
701,0.94,-0.71
702,0.9402,-0.147
703,0.9404,0.278
704,0.9406,0.05
705,0.9408,0.089
706,0.941,0.19
707,0.9412,0.139
708,0.9414,0.083
709,0.9416,0.152
710,0.9418,0.172
711,0.942,0.083
712,0.9422,0.167
713,0.9424,0.109
714,0.9426,0.142
715,0.9428,0.146
716,0.943,0.093
717,0.9432,0.157
718,0.9434,0.142
719,0.9436,0.121
720,0.9438,0.108
721,0.944,0.148
722,0.9442,-1.117
723,0.9444,-1.106
724,0.9446,-0.997
725,0.9448,-0.873
726,0.945,-0.369
727,0.9452,0.089
728,0.9454,0.167
729,0.9456,0.073
730,0.9458,0.186
731,0.946,0.093
732,0.9462,0.135
733,0.9464,0.152
734,0.9466,0.144
735,0.9468,0.087
736,0.947,0.16
737,0.9472,0.176
738,0.9474,0.049
739,0.9476,0.17
740,0.9478,0.153
741,0.948,0.094
742,0.9482,0.127
743,0.9484,0.166
744,0.9486,0.124
745,0.9488,0.106
746,0.949,-0.534
747,0.9492,-1.028
748,0.9494,-1.257
749,0.9496,-0.88
750,0.9498,-0.705
751,0.95,-0.151
752,0.9502,0.278
753,0.9504,0.041
754,0.9506,0.082
755,0.9508,0.206
756,0.951,0.133
757,0.9512,0.075
758,0.9514,0.158
759,0.9516,0.18
760,0.9518,0.075
761,0.952,0.161
762,0.9522,0.123
763,0.9524,0.137
764,0.9526,0.137
765,0.9528,0.099
766,0.953,0.165
767,0.9532,0.133
768,0.9534,0.115
769,0.9536,0.121
770,0.9538,0.053
771,0.954,-1.167
772,0.9542,-1.22
773,0.9544,-0.978
774,0.9546,-0.905
775,0.9548,-0.33
776,0.955,0.163
777,0.9552,0.109
778,0.9554,0.078
779,0.9556,0.216
780,0.9558,0.079
781,0.956,0.11
782,0.9562,0.178
783,0.9564,0.158
784,0.9566,0.057
785,0.9568,0.178
786,0.957,0.179
787,0.9572,0.047
788,0.9574,0.161
789,0.9576,0.157
790,0.9578,0.108
791,0.958,0.112
792,0.9582,0.163
793,0.9584,0.131
794,0.9586,0.117
795,0.9588,-0.509
796,0.959,-1.018
797,0.9592,-1.216
798,0.9594,-0.846
799,0.9596,-0.667
800,0.9598,-0.136
801,0.96,0.28
802,0.9602,0.031
803,0.9604,0.093
804,0.9606,0.207
805,0.9608,0.124
806,0.961,0.075
807,0.9612,0.161
808,0.9614,0.182
809,0.9616,0.066
810,0.9618,0.166
811,0.962,0.127
812,0.9622,0.133
813,0.9624,0.131
814,0.9626,0.103
815,0.9628,0.165
816,0.963,0.129
817,0.9632,0.12
818,0.9634,0.126
819,0.9636,0.06
820,0.9638,-1.179
821,0.964,-1.196
822,0.9642,-0.99
823,0.9644,-0.942
824,0.9646,-0.352
825,0.9648,0.161
826,0.965,0.114
827,0.9652,0.075
828,0.9654,0.215
829,0.9656,0.084
830,0.9658,0.106
831,0.966,0.175
832,0.9662,0.161
833,0.9664,0.054
834,0.9666,0.176
835,0.9668,0.18
836,0.967,0.046
837,0.9672,0.162
838,0.9674,0.156
839,0.9676,0.108
840,0.9678,0.117
841,0.968,0.162
842,0.9682,0.129
843,0.9684,0.117
844,0.9686,-0.736
845,0.9688,-1.014
846,0.969,-1.215
847,0.9692,-0.876
848,0.9694,-0.637
849,0.9696,-0.114
850,0.9698,0.281
851,0.97,0.048
852,0.9702,0.101
853,0.9704,0.167
854,0.9706,0.151
855,0.9708,0.091
856,0.971,0.138
857,0.9712,0.169
858,0.9714,0.096
859,0.9716,0.167
860,0.9718,0.088
861,0.972,0.163
862,0.9722,0.141
863,0.9724,0.079
864,0.9726,0.161
865,0.9728,0.15
866,0.973,0.116
867,0.9732,0.104
868,0.9734,0.056
869,0.9736,-1.165
870,0.9738,-1.209
871,0.974,-0.932
872,0.9742,-0.88
873,0.9744,-0.276
874,0.9746,0.186
875,0.9748,0.099
876,0.975,0.075
877,0.9752,0.228
878,0.9754,0.083
879,0.9756,0.096
880,0.9758,0.18
881,0.976,0.165
882,0.9762,0.05
883,0.9764,0.173
884,0.9766,0.181
885,0.9768,0.054
886,0.977,0.155
887,0.9772,0.152
888,0.9774,0.117
889,0.9776,0.114
890,0.9778,0.155
891,0.978,0.135
892,0.9782,0.125
893,0.9784,-0.796
894,0.9786,-1.02
895,0.9788,-1.206
896,0.979,-0.886
897,0.9792,-0.617
898,0.9794,-0.119
899,0.9796,0.294
900,0.9798,0.049
901,0.98,0.087
902,0.9802,0.175
903,0.9804,0.163
904,0.9806,0.085
905,0.9808,0.131
906,0.981,0.18
907,0.9812,0.103
908,0.9814,0.15
909,0.9816,0.093
910,0.9818,0.172
911,0.982,0.133
912,0.9822,0.075
913,0.9824,0.169
914,0.9826,0.156
915,0.9828,0.104
916,0.983,0.108
917,0.9832,-0.061
918,0.9834,-1.121
919,0.9836,-1.249
920,0.9838,-0.92
921,0.984,-0.873
922,0.9842,-0.27
923,0.9844,0.231
924,0.9846,0.072
925,0.9848,0.071
926,0.985,0.236
927,0.9852,0.096
928,0.9854,0.077
929,0.9856,0.18
930,0.9858,0.18
931,0.986,0.041
932,0.9862,0.172
933,0.9864,0.176
934,0.9866,0.076
935,0.9868,0.143
936,0.987,0.141
937,0.9872,0.136
938,0.9874,0.113
939,0.9876,0.144
940,0.9878,0.133
941,0.988,0.137
942,0.9882,-0.99
943,0.9884,-1.049
944,0.9886,-1.148
945,0.9888,-0.895
946,0.989,-0.514
947,0.9892,-0.022
948,0.9894,0.244
949,0.9896,0.072
950,0.9898,0.132
951,0.99,0.115
952,0.9902,0.162
953,0.9904,0.126
954,0.9906,0.124
955,0.9908,0.128
956,0.991,0.146
957,0.9912,0.166
958,0.9914,0.051
959,0.9916,0.179
960,0.9918,0.162
961,0.992,0.066
962,0.9922,0.143
963,0.9924,0.18
964,0.9926,0.112
965,0.9928,0.093
966,0.993,-0.039
967,0.9932,-1.14
968,0.9934,-1.239
969,0.9936,-0.898
970,0.9938,-0.85
971,0.994,-0.245
972,0.9942,0.218
973,0.9944,0.065
974,0.9946,0.083
975,0.9948,0.234
976,0.995,0.087
977,0.9952,0.08
978,0.9954,0.19
979,0.9956,0.171
980,0.9958,0.038
981,0.996,0.18
982,0.9962,0.174
983,0.9964,0.07
984,0.9966,0.143
985,0.9968,0.146
986,0.997,0.135
987,0.9972,0.106
988,0.9974,0.152
989,0.9976,0.133
990,0.9978,0.127
991,0.998,-1.029
992,0.9982,-1.06
993,0.9984,-1.136
994,0.9986,-0.907
995,0.9988,-0.493
996,0.999,-0.016
997,0.9992,0.238
998,0.9994,0.064
999,0.9996,0.138
1000,0.9998,0.123
1001,1,0.158
1002,1.0002,0.125
1003,1.0004,0.127
1004,1.0006,0.131
1005,1.0008,0.142
1006,1.001,0.162
1007,1.0012,0.057
1008,1.0014,0.181
1009,1.0016,0.151
1010,1.0018,0.071
1011,1.002,0.149
1012,1.0022,0.172
1013,1.0024,0.11
1014,1.0026,0.102
1015,1.0028,-0.104
1016,1.003,-1.116
1017,1.0032,-1.245
1018,1.0034,-0.883
1019,1.0036,-0.841
1020,1.0038,-0.248
1021,1.004,0.231
1022,1.0042,0.056
1023,1.0044,0.081
1024,1.0046,0.243
1025,1.0048,0.083
1026,1.005,0.081
1027,1.0052,0.188
1028,1.0054,0.176
1029,1.0056,0.038
1030,1.0058,0.178
1031,1.006,0.174
1032,1.0062,0.072
1033,1.0064,0.142
1034,1.0066,0.142
1035,1.0068,0.142
1036,1.007,0.107
1037,1.0072,0.146
1038,1.0074,0.137
1039,1.0076,0.127
1040,1.0078,-1.045
1041,1.008,-1.069
1042,1.0082,-1.104
1043,1.0084,-0.892
1044,1.0086,-0.472
1045,1.0088,0.007
1046,1.009,0.201
1047,1.0092,0.087
1048,1.0094,0.157
1049,1.0096,0.1
1050,1.0098,0.144
1051,1.01,0.151
1052,1.0102,0.131
1053,1.0104,0.099
1054,1.0106,0.159
1055,1.0108,0.181
1056,1.011,0.039
1057,1.0112,0.17
1058,1.0114,0.174
1059,1.0116,0.076
1060,1.0118,0.125
1061,1.012,0.18
1062,1.0122,0.127
1063,1.0124,0.087
1064,1.0126,-0.436
1065,1.0128,-1.033
1066,1.013,-1.303
1067,1.0132,-0.9
1068,1.0134,-0.776
1069,1.0136,-0.226
1070,1.0138,0.297
1071,1.014,0.041
1072,1.0142,0.07
1073,1.0144,0.222
1074,1.0146,0.131
1075,1.0148,0.067
1076,1.015,0.153
1077,1.0152,0.201
1078,1.0154,0.056
1079,1.0156,0.159
1080,1.0158,0.143
1081,1.016,0.128
1082,1.0162,0.132
1083,1.0164,0.104
1084,1.0166,0.169
1085,1.0168,0.125
1086,1.017,0.121
1087,1.0172,0.123
1088,1.0174,0.175
1089,1.0176,-0.984
1090,1.0178,-1.028
1091,1.018,-1.058
1092,1.0182,-0.866
1093,1.0184,-0.466
1094,1.0186,0.018
1095,1.0188,0.223
1096,1.019,0.053
1097,1.0192,0.155
1098,1.0194,0.127
1099,1.0196,0.14
1100,1.0198,0.125
1101,1.02,0.148
1102,1.0202,0.119
1103,1.0204,0.133
1104,1.0206,0.179
1105,1.0208,0.058
1106,1.021,0.17
1107,1.0212,0.152
1108,1.0214,0.087
1109,1.0216,0.141
1110,1.0218,0.161
1111,1.022,0.119
1112,1.0222,0.105
1113,1.0224,-0.379
1114,1.0226,-1.056
1115,1.0228,-1.302
1116,1.023,-0.904
1117,1.0232,-0.769
1118,1.0234,-0.22
1119,1.0236,0.294
1120,1.0238,0.018
1121,1.024,0.074
1122,1.0242,0.243
1123,1.0244,0.112
1124,1.0246,0.057
1125,1.0248,0.175
1126,1.025,0.201
1127,1.0252,0.04
1128,1.0254,0.158
1129,1.0256,0.165
1130,1.0258,0.107
1131,1.026,0.125
1132,1.0262,0.119
1133,1.0264,0.17
1134,1.0266,0.113
1135,1.0268,0.12
1136,1.027,0.14
1137,1.0272,0.114
1138,1.0274,-1.164
1139,1.0276,-1.135
1140,1.0278,-1.043
1141,1.028,-0.922
1142,1.0282,-0.387
1143,1.0284,0.092
1144,1.0286,0.161
1145,1.0288,0.078
1146,1.029,0.184
1147,1.0292,0.096
1148,1.0294,0.126
1149,1.0296,0.165
1150,1.0298,0.141
1151,1.03,0.082
1152,1.0302,0.168
1153,1.0304,0.175
1154,1.0306,0.045
1155,1.0308,0.173
1156,1.031,0.157
1157,1.0312,0.093
1158,1.0314,0.126
1159,1.0316,0.167
1160,1.0318,0.123
1161,1.032,0.106
1162,1.0322,-0.316
1163,1.0324,-1.044
1164,1.0326,-1.22
1165,1.0328,-0.834
1166,1.033,-0.714
1167,1.0332,-0.158
1168,1.0334,0.272
1169,1.0336,0.057
1170,1.0338,0.075
1171,1.034,0.21
1172,1.0342,0.127
1173,1.0344,0.08
1174,1.0346,0.156
1175,1.0348,0.18
1176,1.035,0.069
1177,1.0352,0.163
1178,1.0354,0.13
1179,1.0356,0.125
1180,1.0358,0.141
1181,1.036,0.106
1182,1.0362,0.154
1183,1.0364,0.133
1184,1.0366,0.123
1185,1.0368,0.118
1186,1.037,0.113
1187,1.0372,-1.192
1188,1.0374,-1.181
1189,1.0376,-1.033
1190,1.0378,-0.923
1191,1.038,-0.399
1192,1.0382,0.096
1193,1.0384,0.148
1194,1.0386,0.08
1195,1.0388,0.206
1196,1.039,0.068
1197,1.0392,0.13
1198,1.0394,0.171
1199,1.0396,0.146
1200,1.0398,0.066
1201,1.04,0.171
1202,1.0402,0.193
1203,1.0404,0.028
1204,1.0406,0.169
1205,1.0408,0.169
1206,1.041,0.094
1207,1.0412,0.113
1208,1.0414,0.175
1209,1.0416,0.133
1210,1.0418,0.096
1211,1.042,-0.459
1212,1.0422,-1.018
1213,1.0424,-1.243
1214,1.0426,-0.854
1215,1.0428,-0.728
1216,1.043,-0.189
1217,1.0432,0.304
1218,1.0434,0.056
1219,1.0436,0.057
1220,1.0438,0.21
1221,1.044,0.146
1222,1.0442,0.071
1223,1.0444,0.14
1224,1.0446,0.197
1225,1.0448,0.077
1226,1.045,0.15
1227,1.0452,0.125
1228,1.0454,0.144
1229,1.0456,0.135
1230,1.0458,0.087
1231,1.046,0.168
1232,1.0462,0.142
1233,1.0464,0.111
1234,1.0466,0.113
1235,1.0468,0.095
1236,1.047,-1.173
1237,1.0472,-1.192
1238,1.0474,-0.993
1239,1.0476,-0.938
1240,1.0478,-0.357
1241,1.048,0.136
1242,1.0482,0.123
1243,1.0484,0.088
1244,1.0486,0.207
1245,1.0488,0.08
1246,1.049,0.114
1247,1.0492,0.179
1248,1.0494,0.15
1249,1.0496,0.054
1250,1.0498,0.182
1251,1.05,0.181
1252,1.0502,0.037
1253,1.0504,0.167
1254,1.0506,0.166
1255,1.0508,0.099
1256,1.051,0.112
1257,1.0512,0.172
1258,1.0514,0.129
1259,1.0516,0.106
1260,1.0518,-0.575
1261,1.052,-1.033
1262,1.0522,-1.249
1263,1.0524,-0.869
1264,1.0526,-0.671
1265,1.0528,-0.116
1266,1.053,0.276
1267,1.0532,0.054
1268,1.0534,0.089
1269,1.0536,0.187
1270,1.0538,0.146
1271,1.054,0.081
1272,1.0542,0.15
1273,1.0544,0.168
1274,1.0546,0.089
1275,1.0548,0.163
1276,1.055,0.102
1277,1.0552,0.149
1278,1.0554,0.142
1279,1.0556,0.088
1280,1.0558,0.157
1281,1.056,0.146
1282,1.0562,0.115
1283,1.0564,0.11
1284,1.0566,0.108
1285,1.0568,-1.158
1286,1.057,-1.165
1287,1.0572,-0.969
1288,1.0574,-0.872
1289,1.0576,-0.356
1290,1.0578,0.13
1291,1.058,0.129
1292,1.0582,0.077
1293,1.0584,0.219
1294,1.0586,0.068
1295,1.0588,0.121
1296,1.059,0.172
1297,1.0592,0.155
1298,1.0594,0.059
1299,1.0596,0.169
1300,1.0598,0.194
1301,1.06,0.038
1302,1.0602,0.161
1303,1.0604,0.162
1304,1.0606,0.106
1305,1.0608,0.106
1306,1.061,0.167
1307,1.0612,0.138
1308,1.0614,0.104
1309,1.0616,-0.778
1310,1.0618,-1.033
1311,1.062,-1.239
1312,1.0622,-0.9
1313,1.0624,-0.657
1314,1.0626,-0.116
1315,1.0628,0.285
1316,1.063,0.051
1317,1.0632,0.103
1318,1.0634,0.161
1319,1.0636,0.16
1320,1.0638,0.093
1321,1.064,0.138
1322,1.0642,0.165
1323,1.0644,0.103
1324,1.0646,0.167
1325,1.0648,0.083
1326,1.065,0.161
1327,1.0652,0.152
1328,1.0654,0.076
1329,1.0656,0.156
1330,1.0658,0.159
1331,1.066,0.113
1332,1.0662,0.096
1333,1.0664,0.056
1334,1.0666,-1.144
1335,1.0668,-1.199
1336,1.067,-0.919
1337,1.0672,-0.875
1338,1.0674,-0.322
1339,1.0676,0.189
1340,1.0678,0.089
1341,1.068,0.063
1342,1.0682,0.252
1343,1.0684,0.07
1344,1.0686,0.092
1345,1.0688,0.18
1346,1.069,0.179
1347,1.0692,0.038
1348,1.0694,0.163
1349,1.0696,0.203
1350,1.0698,0.051
1351,1.07,0.143
1352,1.0702,0.157
1353,1.0704,0.131
1354,1.0706,0.102
1355,1.0708,0.152
1356,1.071,0.144
1357,1.0712,0.123
1358,1.0714,-0.776
1359,1.0716,-1.016
1360,1.0718,-1.214
1361,1.072,-0.869
1362,1.0722,-0.634
1363,1.0724,-0.105
1364,1.0726,0.275
1365,1.0728,0.052
1366,1.073,0.108
1367,1.0732,0.155
1368,1.0734,0.158
1369,1.0736,0.093
1370,1.0738,0.142
1371,1.074,0.161
1372,1.0742,0.101
1373,1.0744,0.175
1374,1.0746,0.078
1375,1.0748,0.163
1376,1.075,0.148
1377,1.0752,0.082
1378,1.0754,0.156
1379,1.0756,0.156
1380,1.0758,0.12
1381,1.076,0.099
1382,1.0762,0.037
1383,1.0764,-1.163
1384,1.0766,-1.215
1385,1.0768,-0.925
1386,1.077,-0.887
1387,1.0772,-0.301
1388,1.0774,0.187
1389,1.0776,0.098
1390,1.0778,0.068
1391,1.078,0.231
1392,1.0782,0.084
1393,1.0784,0.091
1394,1.0786,0.182
1395,1.0788,0.168
1396,1.079,0.045
1397,1.0792,0.174
1398,1.0794,0.182
1399,1.0796,0.055
1400,1.0798,0.15
1401,1.08,0.152
1402,1.0802,0.12
1403,1.0804,0.111
1404,1.0806,0.158
1405,1.0808,0.133
1406,1.081,0.126
1407,1.0812,-0.785
1408,1.0814,-1.026
1409,1.0816,-1.188
1410,1.0818,-0.865
1411,1.082,-0.602
1412,1.0822,-0.093
1413,1.0824,0.27
1414,1.0826,0.062
1415,1.0828,0.105
1416,1.083,0.151
1417,1.0832,0.161
1418,1.0834,0.102
1419,1.0836,0.133
1420,1.0838,0.152
1421,1.084,0.114
1422,1.0842,0.169
1423,1.0844,0.075
1424,1.0846,0.165
1425,1.0848,0.153
1426,1.085,0.075
1427,1.0852,0.15
1428,1.0854,0.165
1429,1.0856,0.114
1430,1.0858,0.095
1431,1.086,-0.048
1432,1.0862,-1.138
1433,1.0864,-1.263
1434,1.0866,-0.915
1435,1.0868,-0.876
1436,1.087,-0.311
1437,1.0872,0.209
1438,1.0874,0.083
1439,1.0876,0.067
1440,1.0878,0.241
1441,1.088,0.082
1442,1.0882,0.091
1443,1.0884,0.177
1444,1.0886,0.175
1445,1.0888,0.044
1446,1.089,0.171
1447,1.0892,0.18
1448,1.0894,0.064
1449,1.0896,0.149
1450,1.0898,0.144
1451,1.09,0.13
1452,1.0902,0.109
1453,1.0904,0.15
1454,1.0906,0.133
1455,1.0908,0.13
1456,1.091,-0.94
1457,1.0912,-1.036
1458,1.0914,-1.157
1459,1.0916,-0.884
1460,1.0918,-0.53
1461,1.092,-0.045
1462,1.0922,0.247
1463,1.0924,0.046
1464,1.0926,0.133
1465,1.0928,0.148
1466,1.093,0.14
1467,1.0932,0.113
1468,1.0934,0.144
1469,1.0936,0.141
1470,1.0938,0.117
1471,1.094,0.171
1472,1.0942,0.075
1473,1.0944,0.165
1474,1.0946,0.148
1475,1.0948,0.086
1476,1.095,0.151
1477,1.0952,0.154
1478,1.0954,0.117
1479,1.0956,0.107
1480,1.0958,-0.074
1481,1.096,-1.119
1482,1.0962,-1.252
1483,1.0964,-0.911
1484,1.0966,-0.834
1485,1.0968,-0.279
1486,1.097,0.215
1487,1.0972,0.062
1488,1.0974,0.086
1489,1.0976,0.236
1490,1.0978,0.082
1491,1.098,0.085
1492,1.0982,0.181
1493,1.0984,0.178
1494,1.0986,0.037
1495,1.0988,0.177
1496,1.099,0.178
1497,1.0992,0.066
1498,1.0994,0.14
1499,1.0996,0.148
1500,1.0998,0.14
1501,1.1,0.1
1502,1.1002,0.149
1503,1.1004,0.141
1504,1.1006,0.126
1505,1.1008,-1.026
1506,1.101,-1.051
1507,1.1012,-1.13
1508,1.1014,-0.896
1509,1.1016,-0.495
1510,1.1018,0.012
1511,1.102,0.224
1512,1.1022,0.067
1513,1.1024,0.146
1514,1.1026,0.115
1515,1.1028,0.152
1516,1.103,0.125
1517,1.1032,0.138
1518,1.1034,0.117
1519,1.1036,0.144
1520,1.1038,0.175
1521,1.104,0.049
1522,1.1042,0.177
1523,1.1044,0.158
1524,1.1046,0.075
1525,1.1048,0.141
1526,1.105,0.17
1527,1.1052,0.117
1528,1.1054,0.096
1529,1.1056,-0.079
1530,1.1058,-1.123
1531,1.106,-1.256
1532,1.1062,-0.904
1533,1.1064,-0.84
1534,1.1066,-0.251
1535,1.1068,0.228
1536,1.107,0.064
1537,1.1072,0.081
1538,1.1074,0.234
1539,1.1076,0.087
1540,1.1078,0.085
1541,1.108,0.182
1542,1.1082,0.175
1543,1.1084,0.043
1544,1.1086,0.178
1545,1.1088,0.169
1546,1.109,0.076
1547,1.1092,0.144
1548,1.1094,0.14
1549,1.1096,0.139
1550,1.1098,0.109
1551,1.11,0.146
1552,1.1102,0.133
1553,1.1104,0.138
1554,1.1106,-0.96
1555,1.1108,-1.039
1556,1.111,-1.142
1557,1.1112,-0.9
1558,1.1114,-0.545
1559,1.1116,-0.03
1560,1.1118,0.241
1561,1.112,0.055
1562,1.1122,0.143
1563,1.1124,0.121
1564,1.1126,0.155
1565,1.1128,0.116
1566,1.113,0.14
1567,1.1132,0.13
1568,1.1134,0.129
1569,1.1136,0.178
1570,1.1138,0.058
1571,1.114,0.174
1572,1.1142,0.154
1573,1.1144,0.08
1574,1.1146,0.142
1575,1.1148,0.165
1576,1.115,0.119
1577,1.1152,0.099
1578,1.1154,-0.169
1579,1.1156,-1.084
1580,1.1158,-1.279
1581,1.116,-0.885
1582,1.1162,-0.825
1583,1.1164,-0.271
1584,1.1166,0.253
1585,1.1168,0.057
1586,1.117,0.068
1587,1.1172,0.236
1588,1.1174,0.104
1589,1.1176,0.077
1590,1.1178,0.169
1591,1.118,0.192
1592,1.1182,0.043
1593,1.1184,0.167
1594,1.1186,0.167
1595,1.1188,0.09
1596,1.119,0.138
1597,1.1192,0.129
1598,1.1194,0.15
1599,1.1196,0.113
1600,1.1198,0.138
1601,1.12,0.131
1602,1.1202,0.153
1603,1.1204,-0.896
1604,1.1206,-1.021
1605,1.1208,-1.129
1606,1.121,-0.855
1607,1.1212,-0.535
1608,1.1214,-0.037
1609,1.1216,0.25
1610,1.1218,0.052
1611,1.122,0.137
1612,1.1222,0.131
1613,1.1224,0.155
1614,1.1226,0.106
1615,1.1228,0.143
1616,1.123,0.139
1617,1.1232,0.119
1618,1.1234,0.178
1619,1.1236,0.064
1620,1.1238,0.169
1621,1.124,0.15
1622,1.1242,0.083
1623,1.1244,0.148
1624,1.1246,0.161
1625,1.1248,0.12
1626,1.125,0.098
1627,1.1252,-0.061
1628,1.1254,-1.134
1629,1.1256,-1.252
1630,1.1258,-0.909
1631,1.126,-0.869
1632,1.1262,-0.287
1633,1.1264,0.241
1634,1.1266,0.074
1635,1.1268,0.066
1636,1.127,0.232
1637,1.1272,0.102
1638,1.1274,0.079
1639,1.1276,0.167
1640,1.1278,0.187
1641,1.128,0.041
1642,1.1282,0.17
1643,1.1284,0.168
1644,1.1286,0.078
1645,1.1288,0.146
1646,1.129,0.136
1647,1.1292,0.139
1648,1.1294,0.114
1649,1.1296,0.144
1650,1.1298,0.125
1651,1.13,0.125
1652,1.1302,-1.11
1653,1.1304,-1.106
1654,1.1306,-1.106
1655,1.1308,-0.923
1656,1.131,-0.471
1657,1.1312,0.052
1658,1.1314,0.199
1659,1.1316,0.062
1660,1.1318,0.17
1661,1.132,0.103
1662,1.1322,0.138
1663,1.1324,0.139
1664,1.1326,0.148
1665,1.1328,0.095
1666,1.133,0.15
1667,1.1332,0.182
1668,1.1334,0.044
1669,1.1336,0.169
1670,1.1338,0.161
1671,1.134,0.083
1672,1.1342,0.131
1673,1.1344,0.169
1674,1.1346,0.121
1675,1.1348,0.099
1676,1.135,-0.236
1677,1.1352,-1.065
1678,1.1354,-1.257
1679,1.1356,-0.867
1680,1.1358,-0.774
1681,1.136,-0.195
1682,1.1362,0.251
1683,1.1364,0.053
1684,1.1366,0.081
1685,1.1368,0.226
1686,1.137,0.105
1687,1.1372,0.079
1688,1.1374,0.172
1689,1.1376,0.176
1690,1.1378,0.056
1691,1.138,0.169
1692,1.1382,0.15
1693,1.1384,0.1
1694,1.1386,0.14
1695,1.1388,0.12
1696,1.139,0.151
1697,1.1392,0.119
1698,1.1394,0.135
1699,1.1396,0.129
1700,1.1398,0.142
1701,1.14,-1.096
1702,1.1402,-1.096
1703,1.1404,-1.091
1704,1.1406,-0.902
1705,1.1408,-0.466
1706,1.141,-0.004
1707,1.1412,0.222
1708,1.1414,0.069
1709,1.1416,0.151
1710,1.1418,0.101
1711,1.142,0.161
1712,1.1422,0.133
1713,1.1424,0.124
1714,1.1426,0.12
1715,1.1428,0.151
1716,1.143,0.168
1717,1.1432,0.046
1718,1.1434,0.184
1719,1.1436,0.157
1720,1.1438,0.075
1721,1.144,0.14
1722,1.1442,0.175
1723,1.1444,0.114
1724,1.1446,0.094
1725,1.1448,-0.276
1726,1.145,-1.067
1727,1.1452,-1.27
1728,1.1454,-0.869
1729,1.1456,-0.795
1730,1.1458,-0.225
1731,1.146,0.269
1732,1.1462,0.056
1733,1.1464,0.066
1734,1.1466,0.232
1735,1.1468,0.117
1736,1.147,0.07
1737,1.1472,0.169
1738,1.1474,0.189
1739,1.1476,0.053
1740,1.1478,0.163
1741,1.148,0.152
1742,1.1482,0.111
1743,1.1484,0.135
1744,1.1486,0.119
1745,1.1488,0.156
1746,1.149,0.12
1747,1.1492,0.129
1748,1.1494,0.125
1749,1.1496,0.121
1750,1.1498,-1.15
1751,1.15,-1.13
1752,1.1502,-1.035
1753,1.1504,-0.894
1754,1.1506,-0.416
1755,1.1508,0.066
1756,1.151,0.175
1757,1.1512,0.075
1758,1.1514,0.192
1759,1.1516,0.077
1760,1.1518,0.141
1761,1.152,0.157
1762,1.1522,0.14
1763,1.1524,0.086
1764,1.1526,0.161
1765,1.1528,0.186
1766,1.153,0.034
1767,1.1532,0.172
1768,1.1534,0.165
1769,1.1536,0.092
1770,1.1538,0.121
1771,1.154,0.172
1772,1.1542,0.129
1773,1.1544,0.095
1774,1.1546,-0.399
1775,1.1548,-1.046
1776,1.155,-1.268
1777,1.1552,-0.873
1778,1.1554,-0.759
1779,1.1556,-0.196
1780,1.1558,0.272
1781,1.156,0.051
1782,1.1562,0.077
1783,1.1564,0.213
1784,1.1566,0.126
1785,1.1568,0.075
1786,1.157,0.161
1787,1.1572,0.182
1788,1.1574,0.064
1789,1.1576,0.169
1790,1.1578,0.131
1791,1.158,0.124
1792,1.1582,0.138
1793,1.1584,0.107
1794,1.1586,0.157
1795,1.1588,0.131
1796,1.159,0.126
1797,1.1592,0.118
1798,1.1594,0.146
1799,1.1596,-1.129
1800,1.1598,-1.102
1801,1.16,-1.026
1802,1.1602,-0.888
1803,1.1604,-0.399
1804,1.1606,0.096
1805,1.1608,0.18
1806,1.161,0.06
1807,1.1612,0.181
1808,1.1614,0.104
1809,1.1616,0.133
1810,1.1618,0.142
1811,1.162,0.152
1812,1.1622,0.09
1813,1.1624,0.156
1814,1.1626,0.178
1815,1.1628,0.049
1816,1.163,0.172
1817,1.1632,0.155
1818,1.1634,0.089
1819,1.1636,0.133
1820,1.1638,0.167
1821,1.164,0.12
1822,1.1642,0.111
1823,1.1644,-0.558
1824,1.1646,-1.037
1825,1.1648,-1.273
1826,1.165,-0.88
1827,1.1652,-0.707
1828,1.1654,-0.18
1829,1.1656,0.292
1830,1.1658,0.048
1831,1.166,0.069
1832,1.1662,0.203
1833,1.1664,0.142
1834,1.1666,0.076
1835,1.1668,0.144
1836,1.167,0.187
1837,1.1672,0.079
1838,1.1674,0.156
1839,1.1676,0.121
1840,1.1678,0.143
1841,1.168,0.138
1842,1.1682,0.091
1843,1.1684,0.165
1844,1.1686,0.14
1845,1.1688,0.114
1846,1.169,0.115
1847,1.1692,0.102
1848,1.1694,-1.161
1849,1.1696,-1.177
1850,1.1698,-0.983
1851,1.17,-0.884
1852,1.1702,-0.376
1853,1.1704,0.121
1854,1.1706,0.125
1855,1.1708,0.083
1856,1.171,0.216
1857,1.1712,0.069
1858,1.1714,0.12
1859,1.1716,0.172
1860,1.1718,0.157
1861,1.172,0.056
1862,1.1722,0.168
1863,1.1724,0.193
1864,1.1726,0.033
1865,1.1728,0.162
1866,1.173,0.165
1867,1.1732,0.106
1868,1.1734,0.105
1869,1.1736,0.169
1870,1.1738,0.14
1871,1.174,0.102
1872,1.1742,-0.721
1873,1.1744,-1.018
1874,1.1746,-1.213
1875,1.1748,-0.873
1876,1.175,-0.64
1877,1.1752,-0.077
1878,1.1754,0.269
1879,1.1756,0.045
1880,1.1758,0.109
1881,1.176,0.165
1882,1.1762,0.15
1883,1.1764,0.087
1884,1.1766,0.157
1885,1.1768,0.155
1886,1.177,0.098
1887,1.1772,0.175
1888,1.1774,0.088
1889,1.1776,0.152
1890,1.1778,0.149
1891,1.178,0.087
1892,1.1782,0.151
1893,1.1784,0.15
1894,1.1786,0.117
1895,1.1788,0.103
1896,1.179,0.037
1897,1.1792,-1.162
1898,1.1794,-1.22
1899,1.1796,-0.928
1900,1.1798,-0.892
1901,1.18,-0.329
1902,1.1802,0.201
1903,1.1804,0.105
1904,1.1806,0.056
1905,1.1808,0.236
1906,1.181,0.089
1907,1.1812,0.096
1908,1.1814,0.167
1909,1.1816,0.18
1910,1.1818,0.051
1911,1.182,0.163
1912,1.1822,0.184
1913,1.1824,0.059
1914,1.1826,0.151
1915,1.1828,0.146
1916,1.183,0.123
1917,1.1832,0.116
1918,1.1834,0.152
1919,1.1836,0.13
1920,1.1838,0.133
1921,1.184,-0.786
1922,1.1842,-1.021
1923,1.1844,-1.2
1924,1.1846,-0.867
1925,1.1848,-0.579
1926,1.185,-0.072
1927,1.1852,0.265
1928,1.1854,0.057
1929,1.1856,0.107
1930,1.1858,0.158
1931,1.186,0.152
1932,1.1862,0.098
1933,1.1864,0.142
1934,1.1866,0.152
1935,1.1868,0.116
1936,1.187,0.165
1937,1.1872,0.079
1938,1.1874,0.167
1939,1.1876,0.149
1940,1.1878,0.077
1941,1.188,0.155
1942,1.1882,0.159
1943,1.1884,0.112
1944,1.1886,0.102
1945,1.1888,-0.017
1946,1.189,-1.148
1947,1.1892,-1.249
1948,1.1894,-0.928
1949,1.1896,-0.876
1950,1.1898,-0.303
1951,1.19,0.194
1952,1.1902,0.072
1953,1.1904,0.081
1954,1.1906,0.249
1955,1.1908,0.065
1956,1.191,0.089
1957,1.1912,0.194
1958,1.1914,0.172
1959,1.1916,0.033
1960,1.1918,0.178
1961,1.192,0.192
1962,1.1922,0.05
1963,1.1924,0.146
1964,1.1926,0.157
1965,1.1928,0.131
1966,1.193,0.098
1967,1.1932,0.155
1968,1.1934,0.146
1969,1.1936,0.119
1970,1.1938,-0.905
1971,1.194,-1.034
1972,1.1942,-1.169
1973,1.1944,-0.904
1974,1.1946,-0.553
1975,1.1948,-0.047
1976,1.195,0.259
1977,1.1952,0.06
1978,1.1954,0.112
1979,1.1956,0.149
1980,1.1958,0.156
1981,1.196,0.104
1982,1.1962,0.137
1983,1.1964,0.146
1984,1.1966,0.127
1985,1.1968,0.16
1986,1.197,0.071
1987,1.1972,0.174
1988,1.1974,0.151
1989,1.1976,0.071
1990,1.1978,0.157
1991,1.198,0.166
1992,1.1982,0.106
1993,1.1984,0.102
1994,1.1986,-0.006
1995,1.1988,-1.146
1996,1.199,-1.211
1997,1.1992,-0.892
1998,1.1994,-0.846
1999,1.1996,-0.282
2000,1.1998,0.215
1,1.2,0.081
2,1.2002,0.064
3,1.2004,0.243
4,1.2006,0.088
5,1.2008,0.082
6,1.201,0.178
7,1.2012,0.182
8,1.2014,0.041
9,1.2016,0.166
10,1.2018,0.182
11,1.202,0.068
12,1.2022,0.14
13,1.2024,0.146
14,1.2026,0.136
15,1.2028,0.107
16,1.203,0.146
17,1.2032,0.136
18,1.2034,0.133
19,1.2036,-0.978
20,1.2038,-1.047
21,1.204,-1.159
22,1.2042,-0.894
23,1.2044,-0.535
24,1.2046,-0.05
25,1.2048,0.259
26,1.205,0.056
27,1.2052,0.125
28,1.2054,0.131
29,1.2056,0.161
30,1.2058,0.11
31,1.206,0.13
32,1.2062,0.146
33,1.2064,0.128
34,1.2066,0.167
35,1.2068,0.063
36,1.207,0.18
37,1.2072,0.15
38,1.2074,0.071
39,1.2076,0.155
40,1.2078,0.163
41,1.208,0.113
42,1.2082,0.096
43,1.2084,-0.114
44,1.2086,-1.114
45,1.2088,-1.269
46,1.209,-0.896
47,1.2092,-0.835
48,1.2094,-0.241
49,1.2096,0.251
50,1.2098,0.06
51,1.21,0.067
52,1.2102,0.229
53,1.2104,0.11
54,1.2106,0.073
55,1.2108,0.169
56,1.211,0.187
57,1.2112,0.048
58,1.2114,0.165
59,1.2116,0.165
60,1.2118,0.088
61,1.212,0.142
62,1.2122,0.127
63,1.2124,0.144
64,1.2126,0.119
65,1.2128,0.135
66,1.213,0.13
67,1.2132,0.142
68,1.2134,-1.064
69,1.2136,-1.07
70,1.2138,-1.106
71,1.214,-0.898
72,1.2142,-0.484
73,1.2144,-0.018
74,1.2146,0.228
75,1.2148,0.077
76,1.215,0.142
77,1.2152,0.103
78,1.2154,0.162
79,1.2156,0.14
80,1.2158,0.119
81,1.216,0.123
82,1.2162,0.152
83,1.2164,0.169
84,1.2166,0.043
85,1.2168,0.181
86,1.217,0.163
87,1.2172,0.068
88,1.2174,0.139
89,1.2176,0.178
90,1.2178,0.115
91,1.218,0.089
92,1.2182,-0.2
93,1.2184,-1.085
94,1.2186,-1.283
95,1.2188,-0.898
96,1.219,-0.829
97,1.2192,-0.24
98,1.2194,0.262
99,1.2196,0.048
100,1.2198,0.077
101,1.22,0.232
102,1.2202,0.109
103,1.2204,0.072
104,1.2206,0.176
105,1.2208,0.188
106,1.221,0.043
107,1.2212,0.169
108,1.2214,0.16
109,1.2216,0.093
110,1.2218,0.138
111,1.222,0.125
112,1.2222,0.15
113,1.2224,0.114
114,1.2226,0.133
115,1.2228,0.131
116,1.223,0.14
117,1.2232,-1.091
118,1.2234,-1.078
119,1.2236,-1.075
120,1.2238,-0.884
121,1.224,-0.439
122,1.2242,0.043
123,1.2244,0.209
124,1.2246,0.057
125,1.2248,0.168
126,1.225,0.105
127,1.2252,0.144
128,1.2254,0.136
129,1.2256,0.142
130,1.2258,0.104
131,1.226,0.146
132,1.2262,0.177
133,1.2264,0.051
134,1.2266,0.175
135,1.2268,0.155
136,1.227,0.083
137,1.2272,0.136
138,1.2274,0.165
139,1.2276,0.119
140,1.2278,0.102
141,1.228,-0.262
142,1.2282,-1.089
143,1.2284,-1.269
144,1.2286,-0.874
145,1.2288,-0.81
146,1.229,-0.213
147,1.2292,0.269
148,1.2294,0.064
149,1.2296,0.066
150,1.2298,0.223
151,1.23,0.123
152,1.2302,0.075
153,1.2304,0.163
154,1.2306,0.185
155,1.2308,0.06
156,1.231,0.167
157,1.2312,0.14
158,1.2314,0.112
159,1.2316,0.142
160,1.2318,0.112
161,1.232,0.148
162,1.2322,0.131
163,1.2324,0.131
164,1.2326,0.115
165,1.2328,0.149
166,1.233,-1.102
167,1.2332,-1.101
168,1.2334,-1.068
169,1.2336,-0.894
170,1.2338,-0.464
171,1.234,0.022
172,1.2342,0.186
173,1.2344,0.096
174,1.2346,0.165
175,1.2348,0.077
176,1.235,0.156
177,1.2352,0.156
178,1.2354,0.128
179,1.2356,0.087
180,1.2358,0.173
181,1.236,0.182
182,1.2362,0.02
183,1.2364,0.182
184,1.2366,0.175
185,1.2368,0.076
186,1.237,0.117
187,1.2372,0.188
188,1.2374,0.126
189,1.2376,0.08
190,1.2378,-0.463
191,1.238,-1.033
192,1.2382,-1.287
193,1.2384,-0.875
194,1.2386,-0.745
195,1.2388,-0.18
196,1.239,0.287
197,1.2392,0.05
198,1.2394,0.074
199,1.2396,0.205
200,1.2398,0.142
201,1.24,0.069
202,1.2402,0.153
203,1.2404,0.186
204,1.2406,0.07
205,1.2408,0.163
206,1.241,0.123
207,1.2412,0.135
208,1.2414,0.14
209,1.2416,0.094
210,1.2418,0.16
211,1.242,0.138
212,1.2422,0.121
213,1.2424,0.112
214,1.2426,0.142
215,1.2428,-1.154
216,1.243,-1.125
217,1.2432,-1.01
218,1.2434,-0.885
219,1.2436,-0.38
220,1.2438,0.096
221,1.244,0.169
222,1.2442,0.058
223,1.2444,0.199
224,1.2446,0.088
225,1.2448,0.129
226,1.245,0.154
227,1.2452,0.149
228,1.2454,0.086
229,1.2456,0.156
230,1.2458,0.185
231,1.246,0.044
232,1.2462,0.167
233,1.2464,0.157
234,1.2466,0.093
235,1.2468,0.127
236,1.247,0.165
237,1.2472,0.127
238,1.2474,0.108
239,1.2476,-0.485
240,1.2478,-1.035
241,1.248,-1.258
242,1.2482,-0.869
243,1.2484,-0.696
244,1.2486,-0.128
245,1.2488,0.279
246,1.249,0.049
247,1.2492,0.079
248,1.2494,0.203
249,1.2496,0.138
250,1.2498,0.076
251,1.25,0.155
252,1.2502,0.175
253,1.2504,0.08
254,1.2506,0.162
255,1.2508,0.116
256,1.251,0.138
257,1.2512,0.14
258,1.2514,0.094
259,1.2516,0.16
260,1.2518,0.14
261,1.252,0.117
262,1.2522,0.114
263,1.2524,0.068
264,1.2526,-1.195
265,1.2528,-1.222
266,1.253,-0.989
267,1.2532,-0.932
268,1.2534,-0.373
269,1.2536,0.156
270,1.2538,0.125
271,1.254,0.068
272,1.2542,0.224
273,1.2544,0.077
274,1.2546,0.11
275,1.2548,0.171
276,1.255,0.161
277,1.2552,0.054
278,1.2554,0.171
279,1.2556,0.186
280,1.2558,0.043
281,1.256,0.16
282,1.2562,0.159
283,1.2564,0.107
284,1.2566,0.114
285,1.2568,0.165
286,1.257,0.131
287,1.2572,0.115
288,1.2574,-0.823
289,1.2576,-1.016
290,1.2578,-1.209
291,1.258,-0.882
292,1.2582,-0.579
293,1.2584,-0.077
294,1.2586,0.261
295,1.2588,0.066
296,1.259,0.108
297,1.2592,0.15
298,1.2594,0.156
299,1.2596,0.102
300,1.2598,0.138
301,1.26,0.148
302,1.2602,0.117
303,1.2604,0.167
304,1.2606,0.074
305,1.2608,0.167
306,1.261,0.153
307,1.2612,0.075
308,1.2614,0.15
309,1.2616,0.161
310,1.2618,0.116
311,1.262,0.095
312,1.2622,0.026
313,1.2624,-1.162
314,1.2626,-1.209
315,1.2628,-0.91
316,1.263,-0.855
317,1.2632,-0.276
318,1.2634,0.209
319,1.2636,0.096
320,1.2638,0.06
321,1.264,0.236
322,1.2642,0.091
323,1.2644,0.089
324,1.2646,0.174
325,1.2648,0.177
326,1.265,0.048
327,1.2652,0.167
328,1.2654,0.178
329,1.2656,0.066
330,1.2658,0.146
331,1.266,0.142
332,1.2662,0.128
333,1.2664,0.115
334,1.2666,0.148
335,1.2668,0.13
336,1.267,0.133
337,1.2672,-0.949
338,1.2674,-1.05
339,1.2676,-1.165
340,1.2678,-0.91
341,1.268,-0.57
342,1.2682,-0.02
343,1.2684,0.246
344,1.2686,0.058
345,1.2688,0.132
346,1.269,0.131
347,1.2692,0.155
348,1.2694,0.113
349,1.2696,0.143
350,1.2698,0.125
351,1.27,0.137
352,1.2702,0.176
353,1.2704,0.053
354,1.2706,0.172
355,1.2708,0.161
356,1.271,0.071
357,1.2712,0.142
358,1.2714,0.172
359,1.2716,0.114
360,1.2718,0.094
361,1.272,-0.218
362,1.2722,-1.076
363,1.2724,-1.281
364,1.2726,-0.875
365,1.2728,-0.806
366,1.273,-0.253
367,1.2732,0.251
368,1.2734,0.071
369,1.2736,0.073
370,1.2738,0.224
371,1.274,0.105
372,1.2742,0.087
373,1.2744,0.167
374,1.2746,0.176
375,1.2748,0.057
376,1.275,0.172
377,1.2752,0.15
378,1.2754,0.093
379,1.2756,0.15
380,1.2758,0.121
381,1.276,0.142
382,1.2762,0.124
383,1.2764,0.14
384,1.2766,0.121
385,1.2768,0.14
386,1.277,-1.084
387,1.2772,-1.086
388,1.2774,-1.078
389,1.2776,-0.879
390,1.2778,-0.465
391,1.278,0.03
392,1.2782,0.198
393,1.2784,0.073
394,1.2786,0.169
395,1.2788,0.093
396,1.279,0.146
397,1.2792,0.144
398,1.2794,0.142
399,1.2796,0.096
400,1.2798,0.151
401,1.28,0.19
402,1.2802,0.034
403,1.2804,0.175
404,1.2806,0.167
405,1.2808,0.083
406,1.281,0.126
407,1.2812,0.172
408,1.2814,0.128
409,1.2816,0.09
410,1.2818,-0.381
411,1.282,-1.047
412,1.2822,-1.266
413,1.2824,-0.854
414,1.2826,-0.743
415,1.2828,-0.185
416,1.283,0.278
417,1.2832,0.056
418,1.2834,0.065
419,1.2836,0.217
420,1.2838,0.13
421,1.284,0.073
422,1.2842,0.159
423,1.2844,0.186
424,1.2846,0.065
425,1.2848,0.162
426,1.285,0.132
427,1.2852,0.123
428,1.2854,0.139
429,1.2856,0.105
430,1.2858,0.157
431,1.286,0.133
432,1.2862,0.124
433,1.2864,0.117
434,1.2866,0.094
435,1.2868,-1.185
436,1.287,-1.181
437,1.2872,-0.999
438,1.2874,-0.893
439,1.2876,-0.359
440,1.2878,0.123
441,1.288,0.142
442,1.2882,0.066
443,1.2884,0.21
444,1.2886,0.081
445,1.2888,0.119
446,1.289,0.165
447,1.2892,0.15
448,1.2894,0.074
449,1.2896,0.165
450,1.2898,0.184
451,1.29,0.043
452,1.2902,0.165
453,1.2904,0.159
454,1.2906,0.1
455,1.2908,0.12
456,1.291,0.163
457,1.2912,0.13
458,1.2914,0.107
459,1.2916,-0.549
460,1.2918,-1.026
461,1.292,-1.249
462,1.2922,-0.848
463,1.2924,-0.678
464,1.2926,-0.132
465,1.2928,0.292
466,1.293,0.032
467,1.2932,0.083
468,1.2934,0.207
469,1.2936,0.137
470,1.2938,0.068
471,1.294,0.157
472,1.2942,0.186
473,1.2944,0.07
474,1.2946,0.161
475,1.2948,0.121
476,1.295,0.141
477,1.2952,0.131
478,1.2954,0.094
479,1.2956,0.167
480,1.2958,0.132
481,1.296,0.112
482,1.2962,0.119
483,1.2964,-0.017
484,1.2966,-1.152
485,1.2968,-1.24
486,1.297,-0.938
487,1.2972,-0.866
488,1.2974,-0.304
489,1.2976,0.194
490,1.2978,0.084
491,1.298,0.076
492,1.2982,0.227
493,1.2984,0.087
494,1.2986,0.088
495,1.2988,0.182
496,1.299,0.171
497,1.2992,0.044
498,1.2994,0.171
499,1.2996,0.181
500,1.2998,0.056
501,1.3,0.148
502,1.3002,0.148
503,1.3004,0.127
504,1.3006,0.106
505,1.3008,0.153
506,1.301,0.137
507,1.3012,0.121
508,1.3014,-0.969
509,1.3016,-1.047
510,1.3018,-1.192
511,1.302,-0.909
512,1.3022,-0.539
513,1.3024,-0.046
514,1.3026,0.247
515,1.3028,0.073
516,1.303,0.12
517,1.3032,0.127
518,1.3034,0.163
519,1.3036,0.114
520,1.3038,0.128
521,1.304,0.137
522,1.3042,0.14
523,1.3044,0.162
524,1.3046,0.057
525,1.3048,0.18
526,1.305,0.152
527,1.3052,0.069
528,1.3054,0.148
529,1.3056,0.171
530,1.3058,0.113
531,1.306,0.09
532,1.3062,-0.021
533,1.3064,-1.119
534,1.3066,-1.213
535,1.3068,-0.885
536,1.307,-0.837
537,1.3072,-0.265
538,1.3074,0.225
539,1.3076,0.069
540,1.3078,0.076
541,1.308,0.234
542,1.3082,0.091
543,1.3084,0.081
544,1.3086,0.179
545,1.3088,0.18
546,1.309,0.038
547,1.3092,0.173
548,1.3094,0.175
549,1.3096,0.068
550,1.3098,0.143
551,1.31,0.142
552,1.3102,0.136
553,1.3104,0.106
554,1.3106,0.148
555,1.3108,0.135
556,1.311,0.129
557,1.3112,-1.031
558,1.3114,-1.074
559,1.3116,-1.133
560,1.3118,-0.903
561,1.312,-0.515
562,1.3122,-0.009
563,1.3124,0.23
564,1.3126,0.074
565,1.3128,0.14
566,1.313,0.114
567,1.3132,0.154
568,1.3134,0.131
569,1.3136,0.131
570,1.3138,0.118
571,1.314,0.148
572,1.3142,0.176
573,1.3144,0.045
574,1.3146,0.175
575,1.3148,0.167
576,1.315,0.068
577,1.3152,0.138
578,1.3154,0.177
579,1.3156,0.114
580,1.3158,0.089
581,1.316,-0.14
582,1.3162,-1.1
583,1.3164,-1.28
584,1.3166,-0.906
585,1.3168,-0.842
586,1.317,-0.274
587,1.3172,0.265
588,1.3174,0.045
589,1.3176,0.068
590,1.3178,0.243
591,1.318,0.104
592,1.3182,0.066
593,1.3184,0.175
594,1.3186,0.196
595,1.3188,0.037
596,1.319,0.165
597,1.3192,0.175
598,1.3194,0.086
599,1.3196,0.135
600,1.3198,0.131
601,1.32,0.152
602,1.3202,0.109
603,1.3204,0.135
604,1.3206,0.138
605,1.3208,0.142
606,1.321,-1.023
607,1.3212,-1.058
608,1.3214,-1.113
609,1.3216,-0.879
610,1.3218,-0.483
611,1.322,-0.018
612,1.3222,0.232
613,1.3224,0.075
614,1.3226,0.139
615,1.3228,0.109
616,1.323,0.162
617,1.3232,0.131
618,1.3234,0.123
619,1.3236,0.123
620,1.3238,0.149
621,1.324,0.166
622,1.3242,0.047
623,1.3244,0.18
624,1.3246,0.16
625,1.3248,0.073
626,1.325,0.14
627,1.3252,0.177
628,1.3254,0.115
629,1.3256,0.091
630,1.3258,-0.171
631,1.326,-1.102
632,1.3262,-1.258
633,1.3264,-0.888
634,1.3266,-0.819
635,1.3268,-0.22
636,1.327,0.256
637,1.3272,0.054
638,1.3274,0.075
639,1.3276,0.229
640,1.3278,0.106
641,1.328,0.07
642,1.3282,0.174
643,1.3284,0.184
644,1.3286,0.046
645,1.3288,0.172
646,1.329,0.158
647,1.3292,0.093
648,1.3294,0.142
649,1.3296,0.123
650,1.3298,0.148
651,1.33,0.118
652,1.3302,0.135
653,1.3304,0.128
654,1.3306,0.149
655,1.3308,-1.015
656,1.331,-1.068
657,1.3312,-1.115
658,1.3314,-0.879
659,1.3316,-0.514
660,1.3318,-0.029
661,1.332,0.225
662,1.3322,0.08
663,1.3324,0.138
664,1.3326,0.109
665,1.3328,0.16
666,1.333,0.127
667,1.3332,0.132
668,1.3334,0.117
669,1.3336,0.146
670,1.3338,0.173
671,1.334,0.045
672,1.3342,0.178
673,1.3344,0.16
674,1.3346,0.079
675,1.3348,0.131
676,1.335,0.179
677,1.3352,0.12
678,1.3354,0.087
679,1.3356,-0.253
680,1.3358,-1.057
681,1.336,-1.28
682,1.3362,-0.89
683,1.3364,-0.796
684,1.3366,-0.233
685,1.3368,0.288
686,1.337,0.038
687,1.3372,0.062
688,1.3374,0.247
689,1.3376,0.112
690,1.3378,0.06
691,1.338,0.168
692,1.3382,0.203
693,1.3384,0.041
694,1.3386,0.157
695,1.3388,0.166
696,1.339,0.103
697,1.3392,0.125
698,1.3394,0.119
699,1.3396,0.166
700,1.3398,0.114
701,1.34,0.121
702,1.3402,0.138
703,1.3404,0.139
704,1.3406,-1.121
705,1.3408,-1.102
706,1.341,-1.073
707,1.3412,-0.907
708,1.3414,-0.44
709,1.3416,0.025
710,1.3418,0.197
711,1.342,0.081
712,1.3422,0.166
713,1.3424,0.088
714,1.3426,0.15
715,1.3428,0.153
716,1.343,0.125
717,1.3432,0.101
718,1.3434,0.163
719,1.3436,0.177
720,1.3438,0.037
721,1.344,0.177
722,1.3442,0.166
723,1.3444,0.075
724,1.3446,0.127
725,1.3448,0.178
726,1.345,0.121
727,1.3452,0.089
728,1.3454,-0.213
729,1.3456,-1.06
730,1.3458,-1.258
731,1.346,-0.859
732,1.3462,-0.794
733,1.3464,-0.236
734,1.3466,0.269
735,1.3468,0.056
736,1.347,0.066
737,1.3472,0.235
738,1.3474,0.112
739,1.3476,0.073
740,1.3478,0.165
741,1.348,0.19
742,1.3482,0.048
743,1.3484,0.161
744,1.3486,0.159
745,1.3488,0.102
746,1.349,0.135
747,1.3492,0.124
748,1.3494,0.155
749,1.3496,0.117
750,1.3498,0.132
751,1.35,0.127
752,1.3502,0.152
753,1.3504,-1.045
754,1.3506,-1.066
755,1.3508,-1.082
756,1.351,-0.894
757,1.3512,-0.502
758,1.3514,0.001
759,1.3516,0.209
760,1.3518,0.076
761,1.352,0.163
762,1.3522,0.091
763,1.3524,0.156
764,1.3526,0.141
765,1.3528,0.135
766,1.353,0.102
767,1.3532,0.152
768,1.3534,0.189
769,1.3536,0.032
770,1.3538,0.175
771,1.354,0.167
772,1.3542,0.078
773,1.3544,0.124
774,1.3546,0.179
775,1.3548,0.125
776,1.355,0.084
777,1.3552,-0.39
778,1.3554,-1.054
779,1.3556,-1.297
780,1.3558,-0.896
781,1.356,-0.766
782,1.3562,-0.196
783,1.3564,0.301
784,1.3566,0.034
785,1.3568,0.059
786,1.357,0.234
787,1.3572,0.137
788,1.3574,0.049
789,1.3576,0.163
790,1.3578,0.205
791,1.358,0.05
792,1.3582,0.152
793,1.3584,0.15
794,1.3586,0.126
795,1.3588,0.127
796,1.359,0.102
797,1.3592,0.175
798,1.3594,0.123
799,1.3596,0.112
800,1.3598,0.131
801,1.36,0.161
802,1.3602,-1.096
803,1.3604,-1.079
804,1.3606,-1.062
805,1.3608,-0.876
806,1.361,-0.455
807,1.3612,0.029
808,1.3614,0.199
809,1.3616,0.074
810,1.3618,0.173
811,1.362,0.087
812,1.3622,0.154
813,1.3624,0.141
814,1.3626,0.137
815,1.3628,0.1
816,1.363,0.154
817,1.3632,0.182
818,1.3634,0.036
819,1.3636,0.178
820,1.3638,0.161
821,1.364,0.085
822,1.3642,0.126
823,1.3644,0.176
824,1.3646,0.125
825,1.3648,0.091
826,1.365,-0.224
827,1.3652,-1.077
828,1.3654,-1.25
829,1.3656,-0.862
830,1.3658,-0.775
831,1.366,-0.185
832,1.3662,0.255
833,1.3664,0.062
834,1.3666,0.072
835,1.3668,0.222
836,1.367,0.113
837,1.3672,0.08
838,1.3674,0.169
839,1.3676,0.177
840,1.3678,0.062
841,1.368,0.167
842,1.3682,0.144
843,1.3684,0.106
844,1.3686,0.142
845,1.3688,0.117
846,1.369,0.149
847,1.3692,0.128
848,1.3694,0.131
849,1.3696,0.124
850,1.3698,0.113
851,1.37,-1.158
852,1.3702,-1.157
853,1.3704,-1.049
854,1.3706,-0.929
855,1.3708,-0.444
856,1.371,0.035
857,1.3712,0.188
858,1.3714,0.083
859,1.3716,0.169
860,1.3718,0.082
861,1.372,0.151
862,1.3722,0.154
863,1.3724,0.125
864,1.3726,0.095
865,1.3728,0.169
866,1.373,0.174
867,1.3732,0.034
868,1.3734,0.182
869,1.3736,0.163
870,1.3738,0.08
871,1.374,0.126
872,1.3742,0.181
873,1.3744,0.121
874,1.3746,0.091
875,1.3748,-0.434
876,1.375,-1.03
877,1.3752,-1.269
878,1.3754,-0.872
879,1.3756,-0.71
880,1.3758,-0.167
881,1.376,0.279
882,1.3762,0.045
883,1.3764,0.08
884,1.3766,0.209
885,1.3768,0.131
886,1.377,0.075
887,1.3772,0.157
888,1.3774,0.182
889,1.3776,0.071
890,1.3778,0.162
891,1.378,0.129
892,1.3782,0.128
893,1.3784,0.138
894,1.3786,0.102
895,1.3788,0.162
896,1.379,0.131
897,1.3792,0.119
898,1.3794,0.121
899,1.3796,0.15
900,1.3798,-1.125
901,1.38,-1.092
902,1.3802,-1.026
903,1.3804,-0.894
904,1.3806,-0.438
905,1.3808,0.078
906,1.381,0.182
907,1.3812,0.056
908,1.3814,0.19
909,1.3816,0.091
910,1.3818,0.136
911,1.382,0.143
912,1.3822,0.155
913,1.3824,0.087
914,1.3826,0.151
915,1.3828,0.188
916,1.383,0.043
917,1.3832,0.168
918,1.3834,0.16
919,1.3836,0.092
920,1.3838,0.123
921,1.384,0.167
922,1.3842,0.125
923,1.3844,0.103
924,1.3846,-0.526
925,1.3848,-1.035
926,1.385,-1.282
927,1.3852,-0.89
928,1.3854,-0.714
929,1.3856,-0.191
930,1.3858,0.3
931,1.386,0.049
932,1.3862,0.063
933,1.3864,0.212
934,1.3866,0.144
935,1.3868,0.07
936,1.387,0.142
937,1.3872,0.197
938,1.3874,0.075
939,1.3876,0.149
940,1.3878,0.127
941,1.388,0.142
942,1.3882,0.133
943,1.3884,0.089
944,1.3886,0.168
945,1.3888,0.137
946,1.389,0.112
947,1.3892,0.115
