Points,Elapsed Time ,Load 2 
      ,Sec          ,N      
1,0,-0.91
2,0.0002,-0.873
3,0.0004,-0.449
4,0.0006,0.08
5,0.0008,0.15
6,0.001,0.091
7,0.0012,0.195
8,0.0014,0.075
9,0.0016,0.14
10,0.0018,0.16
11,0.002,0.146
12,0.0022,0.076
13,0.0024,0.175
14,0.0026,0.17
15,0.0028,0.055
16,0.003,0.174
17,0.0032,0.148
18,0.0034,0.116
19,0.0036,0.109
20,0.0038,0.174
21,0.004,0.128
22,0.0042,0.112
23,0.0044,0.008
24,0.0046,-1.024
25,0.0048,-1.076
26,0.005,-0.868
27,0.0052,-0.846
28,0.0054,-0.394
29,0.0056,0.162
30,0.0058,0.1
31,0.006,0.091
32,0.0062,0.214
33,0.0064,0.079
34,0.0066,0.118
35,0.0068,0.16
36,0.007,0.169
37,0.0072,0.053
38,0.0074,0.178
39,0.0076,0.168
40,0.0078,0.071
41,0.008,0.158
42,0.0082,0.141
43,0.0084,0.135
44,0.0086,0.102
45,0.0088,0.162
46,0.009,0.131
47,0.0092,0.128
48,0.0094,-0.178
49,0.0096,-0.982
50,0.0098,-1.119
51,0.01,-0.841
52,0.0102,-0.806
53,0.0104,-0.339
54,0.0106,0.236
55,0.0108,0.054
56,0.011,0.096
57,0.0112,0.217
58,0.0114,0.096
59,0.0116,0.099
60,0.0118,0.157
61,0.012,0.19
62,0.0122,0.045
63,0.0124,0.179
64,0.0126,0.153
65,0.0128,0.099
66,0.013,0.144
67,0.0132,0.124
68,0.0134,0.157
69,0.0136,0.106
70,0.0138,0.146
71,0.014,0.129
72,0.0142,0.154
73,0.0144,-0.415
74,0.0146,-0.916
75,0.0148,-1.114
76,0.015,-0.833
77,0.0152,-0.72
78,0.0154,-0.265
79,0.0156,0.282
80,0.0158,0.03
81,0.016,0.106
82,0.0162,0.203
83,0.0164,0.119
84,0.0166,0.092
85,0.0168,0.142
86,0.017,0.197
87,0.0172,0.056
88,0.0174,0.171
89,0.0176,0.133
90,0.0178,0.132
91,0.018,0.135
92,0.0182,0.106
93,0.0184,0.169
94,0.0186,0.115
95,0.0188,0.129
96,0.019,0.127
97,0.0192,0.168
98,0.0194,-0.7
99,0.0196,-0.909
100,0.0198,-1.074
101,0.02,-0.858
102,0.0202,-0.644
103,0.0204,-0.192
104,0.0206,0.291
105,0.0208,0.033
106,0.021,0.121
107,0.0212,0.165
108,0.0214,0.15
109,0.0216,0.098
110,0.0218,0.128
111,0.022,0.186
112,0.0222,0.087
113,0.0224,0.165
114,0.0226,0.1
115,0.0228,0.163
116,0.023,0.135
117,0.0232,0.091
118,0.0234,0.165
119,0.0236,0.14
120,0.0238,0.116
121,0.024,0.116
122,0.0242,0.175
123,0.0244,-0.949
124,0.0246,-0.96
125,0.0248,-0.999
126,0.025,-0.867
127,0.0252,-0.555
128,0.0254,-0.073
129,0.0256,0.248
130,0.0258,0.054
131,0.026,0.154
132,0.0262,0.11
133,0.0264,0.156
134,0.0266,0.126
135,0.0268,0.124
136,0.027,0.139
137,0.0272,0.132
138,0.0274,0.169
139,0.0276,0.066
140,0.0278,0.18
141,0.028,0.144
142,0.0282,0.089
143,0.0284,0.142
144,0.0286,0.163
145,0.0288,0.117
146,0.029,0.106
147,0.0292,0.166
148,0.0294,-0.972
149,0.0296,-0.96
150,0.0298,-0.957
151,0.03,-0.842
152,0.0302,-0.495
153,0.0304,-0.007
154,0.0306,0.212
155,0.0308,0.069
156,0.031,0.169
157,0.0312,0.099
158,0.0314,0.154
159,0.0316,0.138
160,0.0318,0.133
161,0.032,0.112
162,0.0322,0.151
163,0.0324,0.169
164,0.0326,0.062
165,0.0328,0.178
166,0.033,0.146
167,0.0332,0.1
168,0.0334,0.13
169,0.0336,0.168
170,0.0338,0.121
171,0.034,0.107
172,0.0342,0.077
173,0.0344,-1.045
174,0.0346,-1.058
175,0.0348,-0.902
176,0.035,-0.867
177,0.0352,-0.432
178,0.0354,0.104
179,0.0356,0.136
180,0.0358,0.094
181,0.036,0.201
182,0.0362,0.075
183,0.0364,0.133
184,0.0366,0.161
185,0.0368,0.154
186,0.037,0.066
187,0.0372,0.178
188,0.0374,0.169
189,0.0376,0.058
190,0.0378,0.169
191,0.038,0.146
192,0.0382,0.12
193,0.0384,0.108
194,0.0386,0.168
195,0.0388,0.129
196,0.039,0.114
197,0.0392,-0.117
198,0.0394,-0.991
199,0.0396,-1.112
200,0.0398,-0.853
201,0.04,-0.824
202,0.0402,-0.361
203,0.0404,0.213
204,0.0406,0.066
205,0.0408,0.098
206,0.041,0.223
207,0.0412,0.086
208,0.0414,0.103
209,0.0416,0.162
210,0.0418,0.184
211,0.042,0.043
212,0.0422,0.18
213,0.0424,0.163
214,0.0426,0.085
215,0.0428,0.149
216,0.043,0.131
217,0.0432,0.15
218,0.0434,0.102
219,0.0436,0.15
220,0.0438,0.133
221,0.044,0.142
222,0.0442,-0.194
223,0.0444,-0.965
224,0.0446,-1.1
225,0.0448,-0.827
226,0.045,-0.78
227,0.0452,-0.319
228,0.0454,0.248
229,0.0456,0.049
230,0.0458,0.101
231,0.046,0.212
232,0.0462,0.101
233,0.0464,0.096
234,0.0466,0.151
235,0.0468,0.193
236,0.047,0.047
237,0.0472,0.177
238,0.0474,0.15
239,0.0476,0.106
240,0.0478,0.142
241,0.048,0.123
242,0.0482,0.157
243,0.0484,0.111
244,0.0486,0.142
245,0.0488,0.13
246,0.049,0.155
247,0.0492,-0.617
248,0.0494,-0.916
249,0.0496,-1.106
250,0.0498,-0.85
251,0.05,-0.678
252,0.0502,-0.213
253,0.0504,0.293
254,0.0506,0.029
255,0.0508,0.114
256,0.051,0.181
257,0.0512,0.138
258,0.0514,0.094
259,0.0516,0.133
260,0.0518,0.191
261,0.052,0.076
262,0.0522,0.169
263,0.0524,0.112
264,0.0526,0.153
265,0.0528,0.138
266,0.053,0.093
267,0.0532,0.17
268,0.0534,0.133
269,0.0536,0.119
270,0.0538,0.119
271,0.054,0.179
272,0.0542,-0.865
273,0.0544,-0.935
274,0.0546,-1.034
275,0.0548,-0.86
276,0.055,-0.59
277,0.0552,-0.12
278,0.0554,0.272
279,0.0556,0.046
280,0.0558,0.139
281,0.056,0.129
282,0.0562,0.156
283,0.0564,0.112
284,0.0566,0.124
285,0.0568,0.157
286,0.057,0.117
287,0.0572,0.166
288,0.0574,0.075
289,0.0576,0.178
290,0.0578,0.142
291,0.058,0.088
292,0.0582,0.152
293,0.0584,0.157
294,0.0586,0.114
295,0.0588,0.107
296,0.059,0.171
297,0.0592,-0.96
298,0.0594,-0.958
299,0.0596,-0.978
300,0.0598,-0.849
301,0.06,-0.521
302,0.0602,-0.045
303,0.0604,0.234
304,0.0606,0.064
305,0.0608,0.16
306,0.061,0.104
307,0.0612,0.159
308,0.0614,0.131
309,0.0616,0.128
310,0.0618,0.129
311,0.062,0.141
312,0.0622,0.167
313,0.0624,0.064
314,0.0626,0.18
315,0.0628,0.144
316,0.063,0.095
317,0.0632,0.137
318,0.0634,0.168
319,0.0636,0.118
320,0.0638,0.104
321,0.064,0.073
322,0.0642,-1.047
323,0.0644,-1.075
324,0.0646,-0.903
325,0.0648,-0.873
326,0.065,-0.434
327,0.0652,0.102
328,0.0654,0.137
329,0.0656,0.088
330,0.0658,0.204
331,0.066,0.071
332,0.0662,0.132
333,0.0664,0.163
334,0.0666,0.15
335,0.0668,0.069
336,0.067,0.175
337,0.0672,0.174
338,0.0674,0.054
339,0.0676,0.17
340,0.0678,0.146
341,0.068,0.12
342,0.0682,0.108
343,0.0684,0.169
344,0.0686,0.131
345,0.0688,0.113
346,0.069,-0.026
347,0.0692,-1.018
348,0.0694,-1.09
349,0.0696,-0.855
350,0.0698,-0.83
351,0.07,-0.378
352,0.0702,0.186
353,0.0704,0.082
354,0.0706,0.095
355,0.0708,0.217
356,0.071,0.081
357,0.0712,0.114
358,0.0714,0.16
359,0.0716,0.175
360,0.0718,0.046
361,0.072,0.178
362,0.0722,0.167
363,0.0724,0.076
364,0.0726,0.156
365,0.0728,0.138
366,0.073,0.141
367,0.0732,0.101
368,0.0734,0.156
369,0.0736,0.13
370,0.0738,0.133
371,0.074,-0.219
372,0.0742,-0.952
373,0.0744,-1.111
374,0.0746,-0.842
375,0.0748,-0.776
376,0.075,-0.308
377,0.0752,0.247
378,0.0754,0.046
379,0.0756,0.104
380,0.0758,0.212
381,0.076,0.1
382,0.0762,0.099
383,0.0764,0.153
384,0.0766,0.19
385,0.0768,0.046
386,0.077,0.178
387,0.0772,0.15
388,0.0774,0.105
389,0.0776,0.142
390,0.0778,0.123
391,0.078,0.159
392,0.0782,0.106
393,0.0784,0.141
394,0.0786,0.131
395,0.0788,0.153
396,0.079,-0.706
397,0.0792,-0.925
398,0.0794,-1.095
399,0.0796,-0.868
400,0.0798,-0.659
401,0.08,-0.191
402,0.0802,0.292
403,0.0804,0.033
404,0.0806,0.118
405,0.0808,0.168
406,0.081,0.148
407,0.0812,0.1
408,0.0814,0.128
409,0.0816,0.185
410,0.0818,0.087
411,0.082,0.167
412,0.0822,0.102
413,0.0824,0.161
414,0.0826,0.137
415,0.0828,0.09
416,0.083,0.166
417,0.0832,0.138
418,0.0834,0.118
419,0.0836,0.114
420,0.0838,0.184
421,0.084,-0.829
422,0.0842,-0.924
423,0.0844,-1.033
424,0.0846,-0.844
425,0.0848,-0.585
426,0.085,-0.119
427,0.0852,0.268
428,0.0854,0.045
429,0.0856,0.138
430,0.0858,0.131
431,0.086,0.157
432,0.0862,0.112
433,0.0864,0.125
434,0.0866,0.153
435,0.0868,0.116
436,0.087,0.167
437,0.0872,0.079
438,0.0874,0.175
439,0.0876,0.14
440,0.0878,0.09
441,0.088,0.146
442,0.0882,0.157
443,0.0884,0.115
444,0.0886,0.105
445,0.0888,0.154
446,0.089,-1.009
447,0.0892,-0.995
448,0.0894,-0.964
449,0.0896,-0.867
450,0.0898,-0.495
451,0.09,-0.003
452,0.0902,0.207
453,0.0904,0.072
454,0.0906,0.17
455,0.0908,0.093
456,0.091,0.156
457,0.0912,0.141
458,0.0914,0.131
459,0.0916,0.111
460,0.0918,0.155
461,0.092,0.167
462,0.0922,0.058
463,0.0924,0.18
464,0.0926,0.146
465,0.0928,0.096
466,0.093,0.128
467,0.0932,0.169
468,0.0934,0.119
469,0.0936,0.103
470,0.0938,-0.031
471,0.094,-1.038
472,0.0942,-1.131
473,0.0944,-0.88
474,0.0946,-0.869
475,0.0948,-0.398
476,0.095,0.175
477,0.0952,0.088
478,0.0954,0.092
479,0.0956,0.222
480,0.0958,0.073
481,0.096,0.112
482,0.0962,0.167
483,0.0964,0.172
484,0.0966,0.049
485,0.0968,0.181
486,0.097,0.169
487,0.0972,0.069
488,0.0974,0.158
489,0.0976,0.14
490,0.0978,0.14
491,0.098,0.101
492,0.0982,0.158
493,0.0984,0.135
494,0.0986,0.129
495,0.0988,-0.081
496,0.099,-0.989
497,0.0992,-1.074
498,0.0994,-0.828
499,0.0996,-0.791
500,0.0998,-0.352
501,0.1,0.213
502,0.1002,0.068
503,0.1004,0.1
504,0.1006,0.214
505,0.1008,0.09
506,0.101,0.106
507,0.1012,0.158
508,0.1014,0.185
509,0.1016,0.044
510,0.1018,0.18
511,0.102,0.16
512,0.1022,0.088
513,0.1024,0.148
514,0.1026,0.131
515,0.1028,0.146
516,0.103,0.104
517,0.1032,0.15
518,0.1034,0.131
519,0.1036,0.141
520,0.1038,-0.457
521,0.104,-0.93
522,0.1042,-1.127
523,0.1044,-0.856
524,0.1046,-0.735
525,0.1048,-0.266
526,0.105,0.287
527,0.1052,0.028
528,0.1054,0.104
529,0.1056,0.199
530,0.1058,0.125
531,0.106,0.088
532,0.1062,0.144
533,0.1064,0.198
534,0.1066,0.056
535,0.1068,0.171
536,0.107,0.13
537,0.1072,0.133
538,0.1074,0.136
539,0.1076,0.105
540,0.1078,0.169
541,0.108,0.117
542,0.1082,0.129
543,0.1084,0.124
544,0.1086,0.173
545,0.1088,-0.764
546,0.109,-0.921
547,0.1092,-1.056
548,0.1094,-0.846
549,0.1096,-0.624
550,0.1098,-0.155
551,0.11,0.282
552,0.1102,0.038
553,0.1104,0.127
554,0.1106,0.15
555,0.1108,0.15
556,0.111,0.105
557,0.1112,0.128
558,0.1114,0.168
559,0.1116,0.102
560,0.1118,0.169
561,0.112,0.087
562,0.1122,0.169
563,0.1124,0.139
564,0.1126,0.09
565,0.1128,0.157
566,0.113,0.146
567,0.1132,0.116
568,0.1134,0.108
569,0.1136,0.181
570,0.1138,-0.816
571,0.114,-0.916
572,0.1142,-1.029
573,0.1144,-0.83
574,0.1146,-0.571
575,0.1148,-0.1
576,0.115,0.262
577,0.1152,0.049
578,0.1154,0.144
579,0.1156,0.127
580,0.1158,0.155
581,0.116,0.114
582,0.1162,0.129
583,0.1164,0.151
584,0.1166,0.116
585,0.1168,0.17
586,0.117,0.077
587,0.1172,0.175
588,0.1174,0.141
589,0.1176,0.094
590,0.1178,0.146
591,0.118,0.156
592,0.1182,0.118
593,0.1184,0.108
594,0.1186,0.121
595,0.1188,-1.06
596,0.119,-1.05
597,0.1192,-0.937
598,0.1194,-0.884
599,0.1196,-0.459
600,0.1198,0.06
601,0.12,0.167
602,0.1202,0.082
603,0.1204,0.192
604,0.1206,0.078
605,0.1208,0.141
606,0.121,0.156
607,0.1212,0.141
608,0.1214,0.086
609,0.1216,0.167
610,0.1218,0.172
611,0.122,0.051
612,0.1222,0.177
613,0.1224,0.148
614,0.1226,0.109
615,0.1228,0.115
616,0.123,0.171
617,0.1232,0.125
618,0.1234,0.108
619,0.1236,-0.035
620,0.1238,-1.023
621,0.124,-1.106
622,0.1242,-0.855
623,0.1244,-0.846
624,0.1246,-0.381
625,0.1248,0.184
626,0.125,0.087
627,0.1252,0.091
628,0.1254,0.222
629,0.1256,0.079
630,0.1258,0.11
631,0.126,0.161
632,0.1262,0.175
633,0.1264,0.047
634,0.1266,0.18
635,0.1268,0.167
636,0.127,0.075
637,0.1272,0.155
638,0.1274,0.137
639,0.1276,0.141
640,0.1278,0.102
641,0.128,0.157
642,0.1282,0.131
643,0.1284,0.131
644,0.1286,-0.185
645,0.1288,-0.976
646,0.129,-1.11
647,0.1292,-0.837
648,0.1294,-0.787
649,0.1296,-0.325
650,0.1298,0.237
651,0.13,0.057
652,0.1302,0.095
653,0.1304,0.215
654,0.1306,0.099
655,0.1308,0.101
656,0.131,0.152
657,0.1312,0.19
658,0.1314,0.047
659,0.1316,0.178
660,0.1318,0.151
661,0.132,0.103
662,0.1322,0.142
663,0.1324,0.123
664,0.1326,0.157
665,0.1328,0.107
666,0.133,0.144
667,0.1332,0.129
668,0.1334,0.152
669,0.1336,-0.608
670,0.1338,-0.921
671,0.134,-1.112
672,0.1342,-0.857
673,0.1344,-0.682
674,0.1346,-0.213
675,0.1348,0.291
676,0.135,0.029
677,0.1352,0.112
678,0.1354,0.178
679,0.1356,0.138
680,0.1358,0.093
681,0.136,0.131
682,0.1362,0.19
683,0.1364,0.075
684,0.1366,0.168
685,0.1368,0.11
686,0.137,0.152
687,0.1372,0.138
688,0.1374,0.093
689,0.1376,0.169
690,0.1378,0.131
691,0.138,0.121
692,0.1382,0.118
693,0.1384,0.177
694,0.1386,-0.897
695,0.1388,-0.948
696,0.139,-1.026
697,0.1392,-0.867
698,0.1394,-0.572
699,0.1396,-0.096
700,0.1398,0.261
701,0.14,0.048
702,0.1402,0.146
703,0.1404,0.123
704,0.1406,0.156
705,0.1408,0.119
706,0.141,0.125
707,0.1412,0.151
708,0.1414,0.119
709,0.1416,0.17
710,0.1418,0.07
711,0.142,0.178
712,0.1422,0.141
713,0.1424,0.088
714,0.1426,0.15
715,0.1428,0.158
716,0.143,0.117
717,0.1432,0.104
718,0.1434,0.162
719,0.1436,-1.005
720,0.1438,-0.981
721,0.144,-0.957
722,0.1442,-0.852
723,0.1444,-0.481
724,0.1446,0.007
725,0.1448,0.203
726,0.145,0.066
727,0.1452,0.176
728,0.1454,0.091
729,0.1456,0.15
730,0.1458,0.139
731,0.146,0.135
732,0.1462,0.11
733,0.1464,0.149
734,0.1466,0.173
735,0.1468,0.058
736,0.147,0.176
737,0.1472,0.144
738,0.1474,0.101
739,0.1476,0.126
740,0.1478,0.165
741,0.148,0.123
742,0.1482,0.106
743,0.1484,-0.007
744,0.1486,-1.037
745,0.1488,-1.119
746,0.149,-0.891
747,0.1492,-0.858
748,0.1494,-0.381
749,0.1496,0.167
750,0.1498,0.095
751,0.15,0.093
752,0.1502,0.217
753,0.1504,0.075
754,0.1506,0.115
755,0.1508,0.163
756,0.151,0.168
757,0.1512,0.051
758,0.1514,0.179
759,0.1516,0.17
760,0.1518,0.066
761,0.152,0.161
762,0.1522,0.14
763,0.1524,0.138
764,0.1526,0.101
765,0.1528,0.161
766,0.153,0.133
767,0.1532,0.126
768,0.1534,-0.225
769,0.1536,-0.972
770,0.1538,-1.117
771,0.154,-0.839
772,0.1542,-0.781
773,0.1544,-0.307
774,0.1546,0.251
775,0.1548,0.051
776,0.155,0.096
777,0.1552,0.213
778,0.1554,0.102
779,0.1556,0.096
780,0.1558,0.15
781,0.156,0.19
782,0.1562,0.049
783,0.1564,0.175
784,0.1566,0.148
785,0.1568,0.107
786,0.157,0.143
787,0.1572,0.119
788,0.1574,0.16
789,0.1576,0.111
790,0.1578,0.142
791,0.158,0.125
792,0.1582,0.157
793,0.1584,-0.558
794,0.1586,-0.92
795,0.1588,-1.111
796,0.159,-0.841
797,0.1592,-0.684
798,0.1594,-0.216
799,0.1596,0.289
800,0.1598,0.03
801,0.16,0.112
802,0.1602,0.18
803,0.1604,0.135
804,0.1606,0.095
805,0.1608,0.136
806,0.161,0.191
807,0.1612,0.072
808,0.1614,0.171
809,0.1616,0.112
810,0.1618,0.15
811,0.162,0.137
812,0.1622,0.098
813,0.1624,0.166
814,0.1626,0.131
815,0.1628,0.123
816,0.163,0.118
817,0.1632,0.17
818,0.1634,-0.944
819,0.1636,-0.965
820,0.1638,-1.019
821,0.164,-0.875
822,0.1642,-0.55
823,0.1644,-0.07
824,0.1646,0.251
825,0.1648,0.054
826,0.165,0.151
827,0.1652,0.116
828,0.1654,0.156
829,0.1656,0.125
830,0.1658,0.123
831,0.166,0.143
832,0.1662,0.13
833,0.1664,0.169
834,0.1666,0.066
835,0.1668,0.18
836,0.167,0.146
837,0.1672,0.087
838,0.1674,0.144
839,0.1676,0.16
840,0.1678,0.117
841,0.168,0.103
842,0.1682,0.133
843,0.1684,-1.056
844,0.1686,-1.031
845,0.1688,-0.924
846,0.169,-0.869
847,0.1692,-0.458
848,0.1694,0.059
849,0.1696,0.173
850,0.1698,0.075
851,0.17,0.194
852,0.1702,0.081
853,0.1704,0.14
854,0.1706,0.152
855,0.1708,0.144
856,0.171,0.087
857,0.1712,0.163
858,0.1714,0.175
859,0.1716,0.054
860,0.1718,0.174
861,0.172,0.148
862,0.1722,0.108
863,0.1724,0.117
864,0.1726,0.168
865,0.1728,0.125
866,0.173,0.11
867,0.1732,0.006
868,0.1734,-1.035
869,0.1736,-1.097
870,0.1738,-0.877
871,0.174,-0.844
872,0.1742,-0.386
873,0.1744,0.162
874,0.1746,0.098
875,0.1748,0.093
876,0.175,0.215
877,0.1752,0.077
878,0.1754,0.118
879,0.1756,0.161
880,0.1758,0.17
881,0.176,0.051
882,0.1762,0.18
883,0.1764,0.169
884,0.1766,0.068
885,0.1768,0.16
886,0.177,0.14
887,0.1772,0.136
888,0.1774,0.104
889,0.1776,0.162
890,0.1778,0.13
891,0.178,0.128
892,0.1782,-0.297
893,0.1784,-0.951
894,0.1786,-1.125
895,0.1788,-0.847
896,0.179,-0.768
897,0.1792,-0.295
898,0.1794,0.265
899,0.1796,0.04
900,0.1798,0.1
901,0.18,0.21
902,0.1802,0.11
903,0.1804,0.093
904,0.1806,0.15
905,0.1808,0.194
906,0.181,0.049
907,0.1812,0.177
908,0.1814,0.143
909,0.1816,0.115
910,0.1818,0.142
911,0.182,0.115
912,0.1822,0.163
913,0.1824,0.112
914,0.1826,0.136
915,0.1828,0.128
916,0.183,0.161
917,0.1832,-0.661
918,0.1834,-0.928
919,0.1836,-1.097
920,0.1838,-0.846
921,0.184,-0.665
922,0.1842,-0.19
923,0.1844,0.291
924,0.1846,0.034
925,0.1848,0.119
926,0.185,0.165
927,0.1852,0.142
928,0.1854,0.1
929,0.1856,0.131
930,0.1858,0.18
931,0.186,0.083
932,0.1862,0.173
933,0.1864,0.099
934,0.1866,0.157
935,0.1868,0.138
936,0.187,0.092
937,0.1872,0.163
938,0.1874,0.14
939,0.1876,0.119
940,0.1878,0.112
941,0.188,0.182
942,0.1882,-0.809
943,0.1884,-0.917
944,0.1886,-1.035
945,0.1888,-0.835
946,0.189,-0.571
947,0.1892,-0.098
948,0.1894,0.262
949,0.1896,0.045
950,0.1898,0.144
951,0.19,0.129
952,0.1902,0.152
953,0.1904,0.114
954,0.1906,0.13
955,0.1908,0.152
956,0.191,0.114
957,0.1912,0.172
958,0.1914,0.077
959,0.1916,0.172
960,0.1918,0.142
961,0.192,0.093
962,0.1922,0.148
963,0.1924,0.153
964,0.1926,0.118
965,0.1928,0.108
966,0.193,0.133
967,0.1932,-1.06
968,0.1934,-1.039
969,0.1936,-0.944
970,0.1938,-0.886
971,0.194,-0.47
972,0.1942,0.047
973,0.1944,0.178
974,0.1946,0.076
975,0.1948,0.189
976,0.195,0.081
977,0.1952,0.142
978,0.1954,0.152
979,0.1956,0.139
980,0.1958,0.092
981,0.196,0.161
982,0.1962,0.173
983,0.1964,0.053
984,0.1966,0.177
985,0.1968,0.148
986,0.197,0.104
987,0.1972,0.119
988,0.1974,0.168
989,0.1976,0.125
990,0.1978,0.107
991,0.198,-0.033
992,0.1982,-1.024
993,0.1984,-1.111
994,0.1986,-0.855
995,0.1988,-0.833
996,0.199,-0.368
997,0.1992,0.186
998,0.1994,0.086
999,0.1996,0.091
1000,0.1998,0.219
1001,0.2,0.08
1002,0.2002,0.111
1003,0.2004,0.161
1004,0.2006,0.175
1005,0.2008,0.049
1006,0.201,0.179
1007,0.2012,0.168
1008,0.2014,0.075
1009,0.2016,0.154
1010,0.2018,0.133
1011,0.202,0.142
1012,0.2022,0.102
1013,0.2024,0.156
1014,0.2026,0.131
1015,0.2028,0.133
1016,0.203,-0.209
1017,0.2032,-0.966
1018,0.2034,-1.112
1019,0.2036,-0.84
1020,0.2038,-0.774
1021,0.204,-0.3
1022,0.2042,0.248
1023,0.2044,0.049
1024,0.2046,0.1
1025,0.2048,0.21
1026,0.205,0.102
1027,0.2052,0.099
1028,0.2054,0.151
1029,0.2056,0.19
1030,0.2058,0.049
1031,0.206,0.177
1032,0.2062,0.148
1033,0.2064,0.106
1034,0.2066,0.142
1035,0.2068,0.119
1036,0.207,0.157
1037,0.2072,0.11
1038,0.2074,0.14
1039,0.2076,0.128
1040,0.2078,0.156
1041,0.208,-0.667
1042,0.2082,-0.932
1043,0.2084,-1.112
1044,0.2086,-0.872
1045,0.2088,-0.678
1046,0.209,-0.204
1047,0.2092,0.296
1048,0.2094,0.03
1049,0.2096,0.115
1050,0.2098,0.174
1051,0.21,0.142
1052,0.2102,0.096
1053,0.2104,0.131
1054,0.2106,0.188
1055,0.2108,0.079
1056,0.211,0.168
1057,0.2112,0.104
1058,0.2114,0.157
1059,0.2116,0.137
1060,0.2118,0.09
1061,0.212,0.167
1062,0.2122,0.133
1063,0.2124,0.119
1064,0.2126,0.114
1065,0.2128,0.179
1066,0.213,-0.887
1067,0.2132,-0.938
1068,0.2134,-1.014
1069,0.2136,-0.846
1070,0.2138,-0.547
1071,0.214,-0.082
1072,0.2142,0.255
1073,0.2144,0.049
1074,0.2146,0.151
1075,0.2148,0.121
1076,0.215,0.153
1077,0.2152,0.12
1078,0.2154,0.125
1079,0.2156,0.146
1080,0.2158,0.123
1081,0.216,0.169
1082,0.2162,0.069
1083,0.2164,0.178
1084,0.2166,0.142
1085,0.2168,0.091
1086,0.217,0.146
1087,0.2172,0.157
1088,0.2174,0.117
1089,0.2176,0.106
1090,0.2178,0.149
1091,0.218,-1.03
1092,0.2182,-1.01
1093,0.2184,-0.957
1094,0.2186,-0.869
1095,0.2188,-0.473
1096,0.219,0.026
1097,0.2192,0.19
1098,0.2194,0.075
1099,0.2196,0.18
1100,0.2198,0.086
1101,0.22,0.149
1102,0.2202,0.146
1103,0.2204,0.135
1104,0.2206,0.1
1105,0.2208,0.161
1106,0.221,0.169
1107,0.2212,0.054
1108,0.2214,0.178
1109,0.2216,0.148
1110,0.2218,0.104
1111,0.222,0.123
1112,0.2222,0.168
1113,0.2224,0.123
1114,0.2226,0.106
1115,0.2228,-0.007
1116,0.223,-1.034
1117,0.2232,-1.103
1118,0.2234,-0.876
1119,0.2236,-0.861
1120,0.2238,-0.397
1121,0.224,0.168
1122,0.2242,0.098
1123,0.2244,0.091
1124,0.2246,0.217
1125,0.2248,0.077
1126,0.225,0.116
1127,0.2252,0.163
1128,0.2254,0.171
1129,0.2256,0.052
1130,0.2258,0.179
1131,0.226,0.17
1132,0.2262,0.068
1133,0.2264,0.158
1134,0.2266,0.14
1135,0.2268,0.136
1136,0.227,0.102
1137,0.2272,0.161
1138,0.2274,0.131
1139,0.2276,0.128
1140,0.2278,-0.192
1141,0.228,-0.978
1142,0.2282,-1.115
1143,0.2284,-0.831
1144,0.2286,-0.787
1145,0.2288,-0.316
1146,0.229,0.244
1147,0.2292,0.056
1148,0.2294,0.093
1149,0.2296,0.214
1150,0.2298,0.102
1151,0.23,0.096
1152,0.2302,0.15
1153,0.2304,0.19
1154,0.2306,0.048
1155,0.2308,0.176
1156,0.231,0.15
1157,0.2312,0.106
1158,0.2314,0.144
1159,0.2316,0.119
1160,0.2318,0.157
1161,0.232,0.11
1162,0.2322,0.142
1163,0.2324,0.125
1164,0.2326,0.155
1165,0.2328,-0.44
1166,0.233,-0.925
1167,0.2332,-1.116
1168,0.2334,-0.839
1169,0.2336,-0.712
1170,0.2338,-0.239
1171,0.234,0.282
1172,0.2342,0.032
1173,0.2344,0.109
1174,0.2346,0.191
1175,0.2348,0.125
1176,0.235,0.093
1177,0.2352,0.141
1178,0.2354,0.193
1179,0.2356,0.063
1180,0.2358,0.171
1181,0.236,0.125
1182,0.2362,0.138
1183,0.2364,0.138
1184,0.2366,0.104
1185,0.2368,0.166
1186,0.237,0.121
1187,0.2372,0.127
1188,0.2374,0.123
1189,0.2376,0.169
1190,0.2378,-0.835
1191,0.238,-0.938
1192,0.2382,-1.056
1193,0.2384,-0.871
1194,0.2386,-0.608
1195,0.2388,-0.131
1196,0.239,0.276
1197,0.2392,0.041
1198,0.2394,0.133
1199,0.2396,0.138
1200,0.2398,0.153
1201,0.24,0.11
1202,0.2402,0.124
1203,0.2404,0.163
1204,0.2406,0.106
1205,0.2408,0.169
1206,0.241,0.08
1207,0.2412,0.174
1208,0.2414,0.14
1209,0.2416,0.087
1210,0.2418,0.156
1211,0.242,0.152
1212,0.2422,0.115
1213,0.2424,0.107
1214,0.2426,0.157
1215,0.2428,-1.028
1216,0.243,-1.005
1217,0.2432,-0.954
1218,0.2434,-0.869
1219,0.2436,-0.491
1220,0.2438,0.007
1221,0.244,0.205
1222,0.2442,0.068
1223,0.2444,0.176
1224,0.2446,0.087
1225,0.2448,0.151
1226,0.245,0.142
1227,0.2452,0.13
1228,0.2454,0.104
1229,0.2456,0.159
1230,0.2458,0.17
1231,0.246,0.055
1232,0.2462,0.18
1233,0.2464,0.148
1234,0.2466,0.099
1235,0.2468,0.127
1236,0.247,0.169
1237,0.2472,0.121
1238,0.2474,0.104
1239,0.2476,0.091
1240,0.2478,-1.036
1241,0.248,-1.041
1242,0.2482,-0.9
1243,0.2484,-0.852
1244,0.2486,-0.425
1245,0.2488,0.098
1246,0.249,0.142
1247,0.2492,0.09
1248,0.2494,0.198
1249,0.2496,0.075
1250,0.2498,0.136
1251,0.25,0.155
1252,0.2502,0.151
1253,0.2504,0.071
1254,0.2506,0.175
1255,0.2508,0.169
1256,0.251,0.057
1257,0.2512,0.169
1258,0.2514,0.144
1259,0.2516,0.119
1260,0.2518,0.106
1261,0.252,0.168
1262,0.2522,0.126
1263,0.2524,0.113
1264,0.2526,-0.214
1265,0.2528,-0.974
1266,0.253,-1.151
1267,0.2532,-0.867
1268,0.2534,-0.816
1269,0.2536,-0.341
1270,0.2538,0.24
1271,0.254,0.049
1272,0.2542,0.099
1273,0.2544,0.224
1274,0.2546,0.091
1275,0.2548,0.094
1276,0.255,0.16
1277,0.2552,0.189
1278,0.2554,0.039
1279,0.2556,0.179
1280,0.2558,0.158
1281,0.256,0.094
1282,0.2562,0.142
1283,0.2564,0.123
1284,0.2566,0.159
1285,0.2568,0.1
1286,0.257,0.144
1287,0.2572,0.133
1288,0.2574,0.149
1289,0.2576,-0.348
1290,0.2578,-0.931
1291,0.258,-1.106
1292,0.2582,-0.82
1293,0.2584,-0.737
1294,0.2586,-0.276
1295,0.2588,0.275
1296,0.259,0.038
1297,0.2592,0.104
1298,0.2594,0.201
1299,0.2596,0.116
1300,0.2598,0.091
1301,0.26,0.144
1302,0.2602,0.194
1303,0.2604,0.055
1304,0.2606,0.173
1305,0.2608,0.136
1306,0.261,0.126
1307,0.2612,0.137
1308,0.2614,0.109
1309,0.2616,0.165
1310,0.2618,0.119
1311,0.262,0.128
1312,0.2622,0.125
1313,0.2624,0.166
1314,0.2626,-0.612
1315,0.2628,-0.909
1316,0.263,-1.089
1317,0.2632,-0.839
1318,0.2634,-0.663
1319,0.2636,-0.199
1320,0.2638,0.289
1321,0.264,0.03
1322,0.2642,0.119
1323,0.2644,0.172
1324,0.2646,0.14
1325,0.2648,0.096
1326,0.265,0.133
1327,0.2652,0.187
1328,0.2654,0.08
1329,0.2656,0.168
1330,0.2658,0.107
1331,0.266,0.156
1332,0.2662,0.133
1333,0.2664,0.096
1334,0.2666,0.163
1335,0.2668,0.135
1336,0.267,0.121
1337,0.2672,0.118
1338,0.2674,0.169
1339,0.2676,-0.985
1340,0.2678,-0.982
1341,0.268,-1.004
1342,0.2682,-0.884
1343,0.2684,-0.548
1344,0.2686,-0.055
1345,0.2688,0.241
1346,0.269,0.056
1347,0.2692,0.159
1348,0.2694,0.108
1349,0.2696,0.156
1350,0.2698,0.129
1351,0.27,0.125
1352,0.2702,0.132
1353,0.2704,0.138
1354,0.2706,0.173
1355,0.2708,0.062
1356,0.271,0.18
1357,0.2712,0.146
1358,0.2714,0.089
1359,0.2716,0.14
1360,0.2718,0.163
1361,0.272,0.118
1362,0.2722,0.102
1363,0.2724,0.163
1364,0.2726,-0.984
1365,0.2728,-0.959
1366,0.273,-0.946
1367,0.2732,-0.829
1368,0.2734,-0.484
1369,0.2736,0.015
1370,0.2738,0.201
1371,0.274,0.066
1372,0.2742,0.178
1373,0.2744,0.093
1374,0.2746,0.15
1375,0.2748,0.135
1376,0.275,0.142
1377,0.2752,0.104
1378,0.2754,0.15
1379,0.2756,0.174
1380,0.2758,0.058
1381,0.276,0.175
1382,0.2762,0.146
1383,0.2764,0.104
1384,0.2766,0.125
1385,0.2768,0.167
1386,0.277,0.121
1387,0.2772,0.109
1388,0.2774,-0.001
1389,0.2776,-1.047
1390,0.2778,-1.117
1391,0.278,-0.892
1392,0.2782,-0.863
1393,0.2784,-0.392
1394,0.2786,0.166
1395,0.2788,0.096
1396,0.279,0.092
1397,0.2792,0.216
1398,0.2794,0.077
1399,0.2796,0.116
1400,0.2798,0.163
1401,0.28,0.169
1402,0.2802,0.051
1403,0.2804,0.178
1404,0.2806,0.17
1405,0.2808,0.067
1406,0.281,0.159
1407,0.2812,0.14
1408,0.2814,0.138
1409,0.2816,0.102
1410,0.2818,0.161
1411,0.282,0.131
1412,0.2822,0.125
1413,0.2824,-0.274
1414,0.2826,-0.959
1415,0.2828,-1.125
1416,0.283,-0.83
1417,0.2832,-0.768
1418,0.2834,-0.294
1419,0.2836,0.262
1420,0.2838,0.043
1421,0.284,0.1
1422,0.2842,0.212
1423,0.2844,0.105
1424,0.2846,0.093
1425,0.2848,0.15
1426,0.285,0.191
1427,0.2852,0.049
1428,0.2854,0.177
1429,0.2856,0.144
1430,0.2858,0.113
1431,0.286,0.14
1432,0.2862,0.115
1433,0.2864,0.162
1434,0.2866,0.111
1435,0.2868,0.135
1436,0.287,0.127
1437,0.2872,0.161
1438,0.2874,-0.6
1439,0.2876,-0.916
1440,0.2878,-1.107
1441,0.288,-0.844
1442,0.2882,-0.663
1443,0.2884,-0.199
1444,0.2886,0.289
1445,0.2888,0.03
1446,0.289,0.116
1447,0.2892,0.175
1448,0.2894,0.138
1449,0.2896,0.098
1450,0.2898,0.131
1451,0.29,0.188
1452,0.2902,0.079
1453,0.2904,0.168
1454,0.2906,0.109
1455,0.2908,0.152
1456,0.291,0.136
1457,0.2912,0.096
1458,0.2914,0.166
1459,0.2916,0.133
1460,0.2918,0.12
1461,0.292,0.116
1462,0.2922,0.175
1463,0.2924,-0.925
1464,0.2926,-0.959
1465,0.2928,-1.022
1466,0.293,-0.878
1467,0.2932,-0.564
1468,0.2934,-0.082
1469,0.2936,0.255
1470,0.2938,0.051
1471,0.294,0.149
1472,0.2942,0.119
1473,0.2944,0.157
1474,0.2946,0.121
1475,0.2948,0.126
1476,0.295,0.144
1477,0.2952,0.125
1478,0.2954,0.17
1479,0.2956,0.068
1480,0.2958,0.178
1481,0.296,0.142
1482,0.2962,0.088
1483,0.2964,0.146
1484,0.2966,0.16
1485,0.2968,0.117
1486,0.297,0.104
1487,0.2972,0.133
1488,0.2974,-1.06
1489,0.2976,-1.035
1490,0.2978,-0.918
1491,0.298,-0.867
1492,0.2982,-0.461
1493,0.2984,0.062
1494,0.2986,0.173
1495,0.2988,0.071
1496,0.299,0.196
1497,0.2992,0.081
1498,0.2994,0.14
1499,0.2996,0.151
1500,0.2998,0.144
1501,0.3,0.087
1502,0.3002,0.162
1503,0.3004,0.177
1504,0.3006,0.053
1505,0.3008,0.175
1506,0.301,0.149
1507,0.3012,0.111
1508,0.3014,0.115
1509,0.3016,0.167
1510,0.3018,0.124
1511,0.302,0.112
1512,0.3022,0.039
1513,0.3024,-1.033
1514,0.3026,-1.069
1515,0.3028,-0.883
1516,0.303,-0.835
1517,0.3032,-0.387
1518,0.3034,0.144
1519,0.3036,0.111
1520,0.3038,0.091
1521,0.304,0.209
1522,0.3042,0.076
1523,0.3044,0.125
1524,0.3046,0.156
1525,0.3048,0.165
1526,0.305,0.059
1527,0.3052,0.176
1528,0.3054,0.168
1529,0.3056,0.068
1530,0.3058,0.161
1531,0.306,0.14
1532,0.3062,0.131
1533,0.3064,0.103
1534,0.3066,0.161
1535,0.3068,0.129
1536,0.307,0.124
1537,0.3072,-0.255
1538,0.3074,-0.955
1539,0.3076,-1.131
1540,0.3078,-0.856
1541,0.308,-0.788
1542,0.3082,-0.312
1543,0.3084,0.253
1544,0.3086,0.043
1545,0.3088,0.1
1546,0.309,0.215
1547,0.3092,0.102
1548,0.3094,0.093
1549,0.3096,0.156
1550,0.3098,0.193
1551,0.31,0.045
1552,0.3102,0.177
1553,0.3104,0.15
1554,0.3106,0.107
1555,0.3108,0.142
1556,0.311,0.119
1557,0.3112,0.163
1558,0.3114,0.104
1559,0.3116,0.14
1560,0.3118,0.131
1561,0.312,0.156
1562,0.3122,-0.659
1563,0.3124,-0.921
1564,0.3126,-1.103
1565,0.3128,-0.857
1566,0.313,-0.67
1567,0.3132,-0.199
1568,0.3134,0.293
1569,0.3136,0.032
1570,0.3138,0.116
1571,0.314,0.173
1572,0.3142,0.142
1573,0.3144,0.096
1574,0.3146,0.131
1575,0.3148,0.186
1576,0.315,0.084
1577,0.3152,0.168
1578,0.3154,0.105
1579,0.3156,0.158
1580,0.3158,0.136
1581,0.316,0.092
1582,0.3162,0.165
1583,0.3164,0.138
1584,0.3166,0.119
1585,0.3168,0.114
1586,0.317,0.184
1587,0.3172,-0.728
1588,0.3174,-0.905
1589,0.3176,-1.049
1590,0.3178,-0.828
1591,0.318,-0.6
1592,0.3182,-0.134
1593,0.3184,0.274
1594,0.3186,0.04
1595,0.3188,0.135
1596,0.319,0.143
1597,0.3192,0.152
1598,0.3194,0.106
1599,0.3196,0.131
1600,0.3198,0.165
1601,0.32,0.102
1602,0.3202,0.169
1603,0.3204,0.086
1604,0.3206,0.167
1605,0.3208,0.14
1606,0.321,0.093
1607,0.3212,0.153
1608,0.3214,0.149
1609,0.3216,0.118
1610,0.3218,0.112
1611,0.322,0.13
1612,0.3222,-1.056
1613,0.3224,-1.047
1614,0.3226,-0.959
1615,0.3228,-0.894
1616,0.323,-0.476
1617,0.3232,0.036
1618,0.3234,0.178
1619,0.3236,0.076
1620,0.3238,0.185
1621,0.324,0.082
1622,0.3242,0.148
1623,0.3244,0.15
1624,0.3246,0.131
1625,0.3248,0.099
1626,0.325,0.161
1627,0.3252,0.174
1628,0.3254,0.053
1629,0.3256,0.18
1630,0.3258,0.15
1631,0.326,0.102
1632,0.3262,0.121
1633,0.3264,0.17
1634,0.3266,0.124
1635,0.3268,0.104
1636,0.327,0.03
1637,0.3272,-1.047
1638,0.3274,-1.094
1639,0.3276,-0.875
1640,0.3278,-0.854
1641,0.328,-0.394
1642,0.3282,0.161
1643,0.3284,0.106
1644,0.3286,0.086
1645,0.3288,0.216
1646,0.329,0.077
1647,0.3292,0.119
1648,0.3294,0.161
1649,0.3296,0.168
1650,0.3298,0.054
1651,0.33,0.178
1652,0.3302,0.169
1653,0.3304,0.068
1654,0.3306,0.161
1655,0.3308,0.14
1656,0.331,0.132
1657,0.3312,0.104
1658,0.3314,0.162
1659,0.3316,0.131
1660,0.3318,0.128
1661,0.332,-0.157
1662,0.3322,-0.981
1663,0.3324,-1.108
1664,0.3326,-0.835
1665,0.3328,-0.788
1666,0.333,-0.314
1667,0.3332,0.234
1668,0.3334,0.062
1669,0.3336,0.095
1670,0.3338,0.215
1671,0.334,0.095
1672,0.3342,0.102
1673,0.3344,0.152
1674,0.3346,0.188
1675,0.3348,0.047
1676,0.335,0.178
1677,0.3352,0.152
1678,0.3354,0.1
1679,0.3356,0.146
1680,0.3358,0.124
1681,0.336,0.154
1682,0.3362,0.108
1683,0.3364,0.144
1684,0.3366,0.13
1685,0.3368,0.152
1686,0.337,-0.67
1687,0.3372,-0.932
1688,0.3374,-1.121
1689,0.3376,-0.866
1690,0.3378,-0.675
1691,0.338,-0.201
1692,0.3382,0.293
1693,0.3384,0.029
1694,0.3386,0.116
1695,0.3388,0.17
1696,0.339,0.142
1697,0.3392,0.095
1698,0.3394,0.131
1699,0.3396,0.188
1700,0.3398,0.078
1701,0.34,0.167
1702,0.3402,0.104
1703,0.3404,0.155
1704,0.3406,0.138
1705,0.3408,0.092
1706,0.341,0.169
1707,0.3412,0.132
1708,0.3414,0.12
1709,0.3416,0.115
1710,0.3418,0.18
1711,0.342,-0.855
1712,0.3422,-0.928
1713,0.3424,-1.022
1714,0.3426,-0.843
1715,0.3428,-0.563
1716,0.343,-0.093
1717,0.3432,0.261
1718,0.3434,0.046
1719,0.3436,0.146
1720,0.3438,0.125
1721,0.344,0.156
1722,0.3442,0.116
1723,0.3444,0.128
1724,0.3446,0.149
1725,0.3448,0.118
1726,0.345,0.17
1727,0.3452,0.074
1728,0.3454,0.175
1729,0.3456,0.141
1730,0.3458,0.091
1731,0.346,0.148
1732,0.3462,0.156
1733,0.3464,0.116
1734,0.3466,0.106
1735,0.3468,0.138
1736,0.347,-1.05
1737,0.3472,-1.029
1738,0.3474,-0.945
1739,0.3476,-0.873
1740,0.3478,-0.462
1741,0.348,0.044
1742,0.3482,0.182
1743,0.3484,0.073
1744,0.3486,0.19
1745,0.3488,0.082
1746,0.349,0.146
1747,0.3492,0.146
1748,0.3494,0.139
1749,0.3496,0.093
1750,0.3498,0.16
1751,0.35,0.174
1752,0.3502,0.054
1753,0.3504,0.176
1754,0.3506,0.146
1755,0.3508,0.104
1756,0.351,0.12
1757,0.3512,0.168
1758,0.3514,0.125
1759,0.3516,0.108
1760,0.3518,0.035
1761,0.352,-1.056
1762,0.3522,-1.081
1763,0.3524,-0.876
1764,0.3526,-0.854
1765,0.3528,-0.396
1766,0.353,0.153
1767,0.3532,0.108
1768,0.3534,0.084
1769,0.3536,0.215
1770,0.3538,0.078
1771,0.354,0.121
1772,0.3542,0.159
1773,0.3544,0.169
1774,0.3546,0.056
1775,0.3548,0.176
1776,0.355,0.17
1777,0.3552,0.066
1778,0.3554,0.161
1779,0.3556,0.141
1780,0.3558,0.131
1781,0.356,0.106
1782,0.3562,0.158
1783,0.3564,0.129
1784,0.3566,0.126
1785,0.3568,-0.182
1786,0.357,-0.98
1787,0.3572,-1.117
1788,0.3574,-0.841
1789,0.3576,-0.785
1790,0.3578,-0.31
1791,0.358,0.241
1792,0.3582,0.058
1793,0.3584,0.096
1794,0.3586,0.216
1795,0.3588,0.099
1796,0.359,0.101
1797,0.3592,0.152
1798,0.3594,0.189
1799,0.3596,0.049
1800,0.3598,0.176
1801,0.36,0.151
1802,0.3602,0.104
1803,0.3604,0.144
1804,0.3606,0.12
1805,0.3608,0.158
1806,0.361,0.108
1807,0.3612,0.144
1808,0.3614,0.129
1809,0.3616,0.153
1810,0.3618,-0.557
1811,0.362,-0.93
1812,0.3622,-1.119
1813,0.3624,-0.855
1814,0.3626,-0.694
1815,0.3628,-0.215
1816,0.363,0.289
1817,0.3632,0.03
1818,0.3634,0.112
1819,0.3636,0.182
1820,0.3638,0.133
1821,0.364,0.094
1822,0.3642,0.135
1823,0.3644,0.19
1824,0.3646,0.072
1825,0.3648,0.17
1826,0.365,0.114
1827,0.3652,0.148
1828,0.3654,0.14
1829,0.3656,0.093
1830,0.3658,0.167
1831,0.366,0.129
1832,0.3662,0.123
1833,0.3664,0.118
1834,0.3666,0.174
1835,0.3668,-0.873
1836,0.367,-0.94
1837,0.3672,-1.031
1838,0.3674,-0.855
1839,0.3676,-0.567
1840,0.3678,-0.094
1841,0.368,0.261
1842,0.3682,0.045
1843,0.3684,0.144
1844,0.3686,0.125
1845,0.3688,0.155
1846,0.369,0.118
1847,0.3692,0.125
1848,0.3694,0.15
1849,0.3696,0.118
1850,0.3698,0.171
1851,0.37,0.074
1852,0.3702,0.175
1853,0.3704,0.141
1854,0.3706,0.091
1855,0.3708,0.148
1856,0.371,0.156
1857,0.3712,0.119
1858,0.3714,0.106
1859,0.3716,0.143
1860,0.3718,-1.043
1861,0.372,-1.024
1862,0.3722,-0.957
1863,0.3724,-0.875
1864,0.3726,-0.472
1865,0.3728,0.026
1866,0.373,0.189
1867,0.3732,0.075
1868,0.3734,0.18
1869,0.3736,0.083
1870,0.3738,0.15
1871,0.374,0.146
1872,0.3742,0.133
1873,0.3744,0.1
1874,0.3746,0.161
1875,0.3748,0.171
1876,0.375,0.054
1877,0.3752,0.179
1878,0.3754,0.146
1879,0.3756,0.102
1880,0.3758,0.123
1881,0.376,0.169
1882,0.3762,0.121
1883,0.3764,0.105
1884,0.3766,0.013
1885,0.3768,-1.043
1886,0.377,-1.096
1887,0.3772,-0.875
1888,0.3774,-0.849
1889,0.3776,-0.392
1890,0.3778,0.16
1891,0.378,0.106
1892,0.3782,0.084
1893,0.3784,0.217
1894,0.3786,0.076
1895,0.3788,0.118
1896,0.379,0.16
1897,0.3792,0.167
1898,0.3794,0.055
1899,0.3796,0.175
1900,0.3798,0.17
1901,0.38,0.069
1902,0.3802,0.159
1903,0.3804,0.14
1904,0.3806,0.133
1905,0.3808,0.103
1906,0.381,0.161
1907,0.3812,0.131
1908,0.3814,0.128
1909,0.3816,-0.241
1910,0.3818,-0.969
1911,0.382,-1.138
1912,0.3822,-0.839
1913,0.3824,-0.779
1914,0.3826,-0.299
1915,0.3828,0.257
1916,0.383,0.044
1917,0.3832,0.1
1918,0.3834,0.214
1919,0.3836,0.102
1920,0.3838,0.095
1921,0.384,0.153
1922,0.3842,0.191
1923,0.3844,0.047
1924,0.3846,0.177
1925,0.3848,0.148
1926,0.385,0.109
1927,0.3852,0.142
1928,0.3854,0.114
1929,0.3856,0.161
1930,0.3858,0.109
1931,0.386,0.139
1932,0.3862,0.129
1933,0.3864,0.157
1934,0.3866,-0.58
1935,0.3868,-0.921
1936,0.387,-1.096
1937,0.3872,-0.846
1938,0.3874,-0.676
1939,0.3876,-0.207
1940,0.3878,0.289
1941,0.388,0.032
1942,0.3882,0.114
1943,0.3884,0.178
1944,0.3886,0.135
1945,0.3888,0.094
1946,0.389,0.135
1947,0.3892,0.186
1948,0.3894,0.075
1949,0.3896,0.169
1950,0.3898,0.108
1951,0.39,0.149
1952,0.3902,0.138
1953,0.3904,0.094
1954,0.3906,0.167
1955,0.3908,0.131
1956,0.391,0.121
1957,0.3912,0.12
1958,0.3914,0.171
1959,0.3916,-0.921
1960,0.3918,-0.953
1961,0.392,-1.018
1962,0.3922,-0.869
1963,0.3924,-0.554
1964,0.3926,-0.078
1965,0.3928,0.253
1966,0.393,0.049
1967,0.3932,0.152
1968,0.3934,0.118
1969,0.3936,0.157
1970,0.3938,0.123
1971,0.394,0.125
1972,0.3942,0.144
1973,0.3944,0.126
1974,0.3946,0.171
1975,0.3948,0.068
1976,0.395,0.178
1977,0.3952,0.144
1978,0.3954,0.089
1979,0.3956,0.148
1980,0.3958,0.157
1981,0.396,0.117
1982,0.3962,0.105
1983,0.3964,0.14
1984,0.3966,-1.043
1985,0.3968,-1.021
1986,0.397,-0.943
1987,0.3972,-0.865
1988,0.3974,-0.459
1989,0.3976,0.043
1990,0.3978,0.182
1991,0.398,0.074
1992,0.3982,0.188
1993,0.3984,0.082
1994,0.3986,0.146
1995,0.3988,0.146
1996,0.399,0.138
1997,0.3992,0.093
1998,0.3994,0.159
1999,0.3996,0.174
2000,0.3998,0.054
1,0.4,0.177
2,0.4002,0.144
3,0.4004,0.106
4,0.4006,0.12
5,0.4008,0.168
6,0.401,0.123
7,0.4012,0.108
8,0.4014,0.033
9,0.4016,-1.045
10,0.4018,-1.079
11,0.402,-0.883
12,0.4022,-0.846
13,0.4024,-0.386
14,0.4026,0.155
15,0.4028,0.109
16,0.403,0.087
17,0.4032,0.214
18,0.4034,0.077
19,0.4036,0.121
20,0.4038,0.158
21,0.404,0.167
22,0.4042,0.058
23,0.4044,0.176
24,0.4046,0.169
25,0.4048,0.068
26,0.405,0.161
27,0.4052,0.141
28,0.4054,0.13
29,0.4056,0.106
30,0.4058,0.161
31,0.406,0.129
32,0.4062,0.125
33,0.4064,-0.341
34,0.4066,-0.957
35,0.4068,-1.152
36,0.407,-0.85
37,0.4072,-0.774
38,0.4074,-0.291
39,0.4076,0.272
40,0.4078,0.035
41,0.408,0.1
42,0.4082,0.214
43,0.4084,0.107
44,0.4086,0.091
45,0.4088,0.15
46,0.409,0.197
47,0.4092,0.049
48,0.4094,0.173
49,0.4096,0.142
50,0.4098,0.119
51,0.41,0.139
52,0.4102,0.11
53,0.4104,0.165
54,0.4106,0.112
55,0.4108,0.133
56,0.411,0.127
57,0.4112,0.163
58,0.4114,-0.569
59,0.4116,-0.909
60,0.4118,-1.091
61,0.412,-0.835
62,0.4122,-0.668
63,0.4124,-0.204
64,0.4126,0.285
65,0.4128,0.032
66,0.413,0.117
67,0.4132,0.175
68,0.4134,0.136
69,0.4136,0.096
70,0.4138,0.132
71,0.414,0.188
72,0.4142,0.075
73,0.4144,0.17
74,0.4146,0.109
75,0.4148,0.152
76,0.415,0.136
77,0.4152,0.1
78,0.4154,0.165
79,0.4156,0.133
80,0.4158,0.121
81,0.416,0.118
82,0.4162,0.173
83,0.4164,-0.906
84,0.4166,-0.954
85,0.4168,-1.039
86,0.417,-0.873
87,0.4172,-0.57
88,0.4174,-0.093
89,0.4176,0.259
90,0.4178,0.048
91,0.418,0.148
92,0.4182,0.121
93,0.4184,0.157
94,0.4186,0.119
95,0.4188,0.124
96,0.419,0.15
97,0.4192,0.121
98,0.4194,0.169
99,0.4196,0.07
100,0.4198,0.178
101,0.42,0.143
102,0.4202,0.088
103,0.4204,0.148
104,0.4206,0.158
105,0.4208,0.118
106,0.421,0.105
107,0.4212,0.131
108,0.4214,-1.056
109,0.4216,-1.035
110,0.4218,-0.925
111,0.422,-0.867
112,0.4222,-0.442
113,0.4224,0.065
114,0.4226,0.169
115,0.4228,0.074
116,0.423,0.196
117,0.4232,0.079
118,0.4234,0.141
119,0.4236,0.15
120,0.4238,0.142
121,0.424,0.087
122,0.4242,0.165
123,0.4244,0.174
124,0.4246,0.054
125,0.4248,0.175
126,0.425,0.146
127,0.4252,0.11
128,0.4254,0.118
129,0.4256,0.167
130,0.4258,0.125
131,0.426,0.111
132,0.4262,0.014
133,0.4264,-1.042
134,0.4266,-1.082
135,0.4268,-0.875
136,0.427,-0.84
137,0.4272,-0.377
138,0.4274,0.165
139,0.4276,0.104
140,0.4278,0.086
141,0.428,0.216
142,0.4282,0.08
143,0.4284,0.119
144,0.4286,0.158
145,0.4288,0.17
146,0.429,0.056
147,0.4292,0.175
148,0.4294,0.167
149,0.4296,0.072
150,0.4298,0.158
151,0.43,0.137
152,0.4302,0.136
153,0.4304,0.105
154,0.4306,0.157
155,0.4308,0.129
156,0.431,0.129
157,0.4312,-0.253
158,0.4314,-0.967
159,0.4316,-1.133
160,0.4318,-0.852
161,0.432,-0.779
162,0.4322,-0.3
163,0.4324,0.254
164,0.4326,0.046
165,0.4328,0.096
166,0.433,0.214
167,0.4332,0.1
168,0.4334,0.096
169,0.4336,0.151
170,0.4338,0.191
171,0.434,0.049
172,0.4342,0.176
173,0.4344,0.143
174,0.4346,0.108
175,0.4348,0.142
176,0.435,0.117
177,0.4352,0.161
178,0.4354,0.11
179,0.4356,0.14
180,0.4358,0.129
181,0.436,0.157
182,0.4362,-0.624
183,0.4364,-0.918
184,0.4366,-1.094
185,0.4368,-0.849
186,0.437,-0.663
187,0.4372,-0.19
188,0.4374,0.288
189,0.4376,0.033
190,0.4378,0.119
191,0.438,0.173
192,0.4382,0.14
193,0.4384,0.098
194,0.4386,0.132
195,0.4388,0.185
196,0.439,0.078
197,0.4392,0.169
198,0.4394,0.104
199,0.4396,0.155
200,0.4398,0.14
201,0.44,0.093
202,0.4402,0.163
203,0.4404,0.133
204,0.4406,0.121
205,0.4408,0.117
206,0.441,0.175
207,0.4412,-0.907
208,0.4414,-0.951
209,0.4416,-1.024
210,0.4418,-0.862
211,0.442,-0.567
212,0.4422,-0.085
213,0.4424,0.255
214,0.4426,0.045
215,0.4428,0.151
216,0.443,0.12
217,0.4432,0.155
218,0.4434,0.119
219,0.4436,0.129
220,0.4438,0.144
221,0.444,0.121
222,0.4442,0.175
223,0.4444,0.066
224,0.4446,0.175
225,0.4448,0.143
226,0.445,0.088
227,0.4452,0.144
228,0.4454,0.158
229,0.4456,0.119
230,0.4458,0.105
231,0.446,0.144
232,0.4462,-1.041
233,0.4464,-1.016
234,0.4466,-0.944
235,0.4468,-0.864
236,0.447,-0.461
237,0.4472,0.041
238,0.4474,0.186
239,0.4476,0.068
240,0.4478,0.187
241,0.448,0.083
242,0.4482,0.146
243,0.4484,0.146
244,0.4486,0.139
245,0.4488,0.096
246,0.449,0.159
247,0.4492,0.174
248,0.4494,0.055
249,0.4496,0.176
250,0.4498,0.144
251,0.45,0.104
252,0.4502,0.121
253,0.4504,0.167
254,0.4506,0.123
255,0.4508,0.109
256,0.451,-0.006
257,0.4512,-1.043
258,0.4514,-1.104
259,0.4516,-0.879
260,0.4518,-0.848
261,0.452,-0.375
262,0.4522,0.174
263,0.4524,0.096
264,0.4526,0.089
265,0.4528,0.216
266,0.453,0.08
267,0.4532,0.113
268,0.4534,0.161
269,0.4536,0.17
270,0.4538,0.055
271,0.454,0.178
272,0.4542,0.169
273,0.4544,0.072
274,0.4546,0.157
275,0.4548,0.137
276,0.455,0.138
277,0.4552,0.104
278,0.4554,0.156
279,0.4556,0.13
280,0.4558,0.129
281,0.456,-0.284
282,0.4562,-0.959
283,0.4564,-1.133
284,0.4566,-0.842
285,0.4568,-0.768
286,0.457,-0.291
287,0.4572,0.262
288,0.4574,0.041
289,0.4576,0.101
290,0.4578,0.212
291,0.458,0.104
292,0.4582,0.094
293,0.4584,0.15
294,0.4586,0.192
295,0.4588,0.049
296,0.459,0.175
297,0.4592,0.143
298,0.4594,0.115
299,0.4596,0.141
300,0.4598,0.114
301,0.46,0.162
302,0.4602,0.112
303,0.4604,0.136
304,0.4606,0.128
305,0.4608,0.16
306,0.461,-0.583
307,0.4612,-0.915
308,0.4614,-1.098
309,0.4616,-0.846
310,0.4618,-0.673
311,0.462,-0.202
312,0.4622,0.287
313,0.4624,0.033
314,0.4626,0.115
315,0.4628,0.176
316,0.463,0.138
317,0.4632,0.094
318,0.4634,0.133
319,0.4636,0.186
320,0.4638,0.077
321,0.464,0.169
322,0.4642,0.11
323,0.4644,0.15
324,0.4646,0.138
325,0.4648,0.096
326,0.465,0.165
327,0.4652,0.132
328,0.4654,0.12
329,0.4656,0.119
330,0.4658,0.166
331,0.466,-0.972
332,0.4662,-0.972
333,0.4664,-1.018
334,0.4666,-0.874
335,0.4668,-0.539
336,0.467,-0.065
337,0.4672,0.243
338,0.4674,0.056
339,0.4676,0.156
340,0.4678,0.111
341,0.468,0.156
342,0.4682,0.126
343,0.4684,0.123
344,0.4686,0.14
345,0.4688,0.132
346,0.469,0.168
347,0.4692,0.065
348,0.4694,0.18
349,0.4696,0.144
350,0.4698,0.089
351,0.47,0.141
352,0.4702,0.161
353,0.4704,0.117
354,0.4706,0.104
355,0.4708,0.146
356,0.471,-1.035
357,0.4712,-1.008
358,0.4714,-0.944
359,0.4716,-0.868
360,0.4718,-0.471
361,0.472,0.035
362,0.4722,0.182
363,0.4724,0.073
364,0.4726,0.184
365,0.4728,0.083
366,0.473,0.148
367,0.4732,0.144
368,0.4734,0.138
369,0.4736,0.094
370,0.4738,0.16
371,0.474,0.169
372,0.4742,0.056
373,0.4744,0.177
374,0.4746,0.148
375,0.4748,0.104
376,0.475,0.12
377,0.4752,0.169
378,0.4754,0.123
379,0.4756,0.107
380,0.4758,-0.019
381,0.476,-1.019
382,0.4762,-1.103
383,0.4764,-0.871
384,0.4766,-0.839
385,0.4768,-0.37
386,0.477,0.173
387,0.4772,0.091
388,0.4774,0.093
389,0.4776,0.217
390,0.4778,0.077
391,0.478,0.115
392,0.4782,0.163
393,0.4784,0.17
394,0.4786,0.051
395,0.4788,0.179
396,0.479,0.167
397,0.4792,0.072
398,0.4794,0.157
399,0.4796,0.137
400,0.4798,0.139
401,0.48,0.103
402,0.4802,0.157
403,0.4804,0.133
404,0.4806,0.13
405,0.4808,-0.341
406,0.481,-0.954
407,0.4812,-1.142
408,0.4814,-0.859
409,0.4816,-0.77
410,0.4818,-0.293
411,0.482,0.268
412,0.4822,0.037
413,0.4824,0.1
414,0.4826,0.212
415,0.4828,0.107
416,0.483,0.091
417,0.4832,0.148
418,0.4834,0.196
419,0.4836,0.049
420,0.4838,0.174
421,0.484,0.141
422,0.4842,0.117
423,0.4844,0.138
424,0.4846,0.112
425,0.4848,0.165
426,0.485,0.112
427,0.4852,0.133
428,0.4854,0.128
429,0.4856,0.163
430,0.4858,-0.409
431,0.486,-0.921
432,0.4862,-1.096
433,0.4864,-0.818
434,0.4866,-0.715
435,0.4868,-0.252
436,0.487,0.284
437,0.4872,0.033
438,0.4874,0.108
439,0.4876,0.194
440,0.4878,0.127
441,0.488,0.091
442,0.4882,0.14
443,0.4884,0.193
444,0.4886,0.06
445,0.4888,0.171
446,0.489,0.126
447,0.4892,0.136
448,0.4894,0.137
449,0.4896,0.106
450,0.4898,0.163
451,0.49,0.123
452,0.4902,0.127
453,0.4904,0.123
454,0.4906,0.167
455,0.4908,-0.866
456,0.491,-0.938
457,0.4912,-1.045
458,0.4914,-0.869
459,0.4916,-0.585
460,0.4918,-0.12
461,0.492,0.272
462,0.4922,0.045
463,0.4924,0.136
464,0.4926,0.133
465,0.4928,0.157
466,0.493,0.113
467,0.4932,0.12
468,0.4934,0.163
469,0.4936,0.114
470,0.4938,0.165
471,0.494,0.079
472,0.4942,0.178
473,0.4944,0.138
474,0.4946,0.086
475,0.4948,0.155
476,0.495,0.155
477,0.4952,0.114
478,0.4954,0.107
479,0.4956,0.157
480,0.4958,-1.045
481,0.496,-1.014
482,0.4962,-0.955
483,0.4964,-0.883
484,0.4966,-0.502
485,0.4968,0.007
486,0.497,0.203
487,0.4972,0.068
488,0.4974,0.178
489,0.4976,0.089
490,0.4978,0.149
491,0.498,0.144
492,0.4982,0.136
493,0.4984,0.104
494,0.4986,0.157
495,0.4988,0.174
496,0.499,0.054
497,0.4992,0.18
498,0.4994,0.15
499,0.4996,0.096
500,0.4998,0.125
501,0.5,0.169
502,0.5002,0.12
503,0.5004,0.104
504,0.5006,0.129
505,0.5008,-1.011
506,0.501,-0.983
507,0.5012,-0.907
508,0.5014,-0.829
509,0.5016,-0.447
510,0.5018,0.056
511,0.502,0.17
512,0.5022,0.08
513,0.5024,0.187
514,0.5026,0.083
515,0.5028,0.146
516,0.503,0.146
517,0.5032,0.144
518,0.5034,0.085
519,0.5036,0.166
520,0.5038,0.167
521,0.504,0.062
522,0.5042,0.17
523,0.5044,0.146
524,0.5046,0.109
525,0.5048,0.117
526,0.505,0.169
527,0.5052,0.125
528,0.5054,0.112
529,0.5056,-0.151
530,0.5058,-0.986
531,0.506,-1.148
532,0.5062,-0.878
533,0.5064,-0.835
534,0.5066,-0.366
535,0.5068,0.207
536,0.507,0.06
537,0.5072,0.102
538,0.5074,0.223
539,0.5076,0.079
540,0.5078,0.102
541,0.508,0.167
542,0.5082,0.182
543,0.5084,0.041
544,0.5086,0.18
545,0.5088,0.166
546,0.509,0.081
547,0.5092,0.148
548,0.5094,0.131
549,0.5096,0.151
550,0.5098,0.096
551,0.51,0.152
552,0.5102,0.136
553,0.5104,0.138
554,0.5106,-0.253
555,0.5108,-0.952
556,0.511,-1.113
557,0.5112,-0.828
558,0.5114,-0.776
559,0.5116,-0.314
560,0.5118,0.264
561,0.512,0.039
562,0.5122,0.101
563,0.5124,0.213
564,0.5126,0.104
565,0.5128,0.092
566,0.513,0.152
567,0.5132,0.194
568,0.5134,0.044
569,0.5136,0.176
570,0.5138,0.148
571,0.514,0.111
572,0.5142,0.139
573,0.5144,0.119
574,0.5146,0.161
575,0.5148,0.111
576,0.515,0.137
577,0.5152,0.129
578,0.5154,0.161
579,0.5156,-0.462
580,0.5158,-0.913
581,0.516,-1.092
582,0.5162,-0.825
583,0.5164,-0.701
584,0.5166,-0.238
585,0.5168,0.284
586,0.517,0.03
587,0.5172,0.111
588,0.5174,0.189
589,0.5176,0.129
590,0.5178,0.091
591,0.518,0.14
592,0.5182,0.19
593,0.5184,0.064
594,0.5186,0.171
595,0.5188,0.123
596,0.519,0.141
597,0.5192,0.136
598,0.5194,0.102
599,0.5196,0.163
600,0.5198,0.125
601,0.52,0.124
602,0.5202,0.123
603,0.5204,0.169
604,0.5206,-0.86
605,0.5208,-0.938
606,0.521,-1.052
607,0.5212,-0.874
608,0.5214,-0.598
609,0.5216,-0.132
610,0.5218,0.273
611,0.522,0.045
612,0.5222,0.131
613,0.5224,0.136
614,0.5226,0.156
615,0.5228,0.112
616,0.523,0.121
617,0.5232,0.163
618,0.5234,0.113
619,0.5236,0.163
620,0.5238,0.081
621,0.524,0.178
622,0.5242,0.14
623,0.5244,0.084
624,0.5246,0.157
625,0.5248,0.152
626,0.525,0.114
627,0.5252,0.106
628,0.5254,0.177
629,0.5256,-0.928
630,0.5258,-0.942
631,0.526,-0.993
632,0.5262,-0.847
633,0.5264,-0.53
634,0.5266,-0.051
635,0.5268,0.238
636,0.527,0.059
637,0.5272,0.157
638,0.5274,0.108
639,0.5276,0.157
640,0.5278,0.126
641,0.528,0.128
642,0.5282,0.131
643,0.5284,0.138
644,0.5286,0.167
645,0.5288,0.066
646,0.529,0.18
647,0.5292,0.143
648,0.5294,0.093
649,0.5296,0.138
650,0.5298,0.167
651,0.53,0.116
652,0.5302,0.106
653,0.5304,0.125
654,0.5306,-1.04
655,0.5308,-1.021
656,0.531,-0.923
657,0.5312,-0.869
658,0.5314,-0.459
659,0.5316,0.053
660,0.5318,0.171
661,0.532,0.082
662,0.5322,0.189
663,0.5324,0.078
664,0.5326,0.144
665,0.5328,0.15
666,0.533,0.138
667,0.5332,0.09
668,0.5334,0.167
669,0.5336,0.169
670,0.5338,0.056
671,0.534,0.176
672,0.5342,0.148
673,0.5344,0.109
674,0.5346,0.118
675,0.5348,0.171
676,0.535,0.125
677,0.5352,0.108
678,0.5354,-0.043
679,0.5356,-1.016
680,0.5358,-1.115
681,0.536,-0.862
682,0.5362,-0.846
683,0.5364,-0.384
684,0.5366,0.189
685,0.5368,0.077
686,0.537,0.099
687,0.5372,0.219
688,0.5374,0.077
689,0.5376,0.112
690,0.5378,0.165
691,0.538,0.175
692,0.5382,0.044
693,0.5384,0.181
694,0.5386,0.167
695,0.5388,0.072
696,0.539,0.155
697,0.5392,0.138
698,0.5394,0.142
699,0.5396,0.1
700,0.5398,0.157
701,0.54,0.132
702,0.5402,0.131
703,0.5404,-0.126
704,0.5406,-0.972
705,0.5408,-1.089
706,0.541,-0.846
707,0.5412,-0.8
708,0.5414,-0.349
709,0.5416,0.216
710,0.5418,0.058
711,0.542,0.102
712,0.5422,0.213
713,0.5424,0.09
714,0.5426,0.104
715,0.5428,0.157
716,0.543,0.185
717,0.5432,0.043
718,0.5434,0.18
719,0.5436,0.157
720,0.5438,0.089
721,0.544,0.146
722,0.5442,0.13
723,0.5444,0.15
724,0.5446,0.102
725,0.5448,0.149
726,0.545,0.131
727,0.5452,0.142
728,0.5454,-0.48
729,0.5456,-0.911
730,0.5458,-1.112
731,0.546,-0.843
732,0.5462,-0.722
733,0.5464,-0.265
734,0.5466,0.287
735,0.5468,0.028
736,0.547,0.106
737,0.5472,0.199
738,0.5474,0.124
739,0.5476,0.09
740,0.5478,0.142
741,0.548,0.198
742,0.5482,0.056
743,0.5484,0.171
744,0.5486,0.131
745,0.5488,0.136
746,0.549,0.133
747,0.5492,0.103
748,0.5494,0.169
749,0.5496,0.117
750,0.5498,0.126
751,0.55,0.125
752,0.5502,0.171
753,0.5504,-0.807
754,0.5506,-0.928
755,0.5508,-1.064
756,0.551,-0.862
757,0.5512,-0.617
758,0.5514,-0.155
759,0.5516,0.285
760,0.5518,0.038
761,0.552,0.126
762,0.5522,0.148
763,0.5524,0.155
764,0.5526,0.106
765,0.5528,0.123
766,0.553,0.17
767,0.5532,0.104
768,0.5534,0.163
769,0.5536,0.085
770,0.5538,0.174
771,0.554,0.138
772,0.5542,0.087
773,0.5544,0.16
774,0.5546,0.15
775,0.5548,0.114
776,0.555,0.107
777,0.5552,0.186
778,0.5554,-0.809
779,0.5556,-0.909
780,0.5558,-1.021
781,0.556,-0.837
782,0.5562,-0.585
783,0.5564,-0.114
784,0.5566,0.264
785,0.5568,0.045
786,0.557,0.142
787,0.5572,0.129
788,0.5574,0.155
789,0.5576,0.111
790,0.5578,0.13
791,0.558,0.154
792,0.5582,0.114
793,0.5584,0.169
794,0.5586,0.079
795,0.5588,0.172
796,0.559,0.142
797,0.5592,0.091
798,0.5594,0.149
799,0.5596,0.155
800,0.5598,0.115
801,0.56,0.106
802,0.5602,0.146
803,0.5604,-1.021
804,0.5606,-1.009
805,0.5608,-0.952
806,0.561,-0.873
807,0.5612,-0.488
808,0.5614,0.005
809,0.5616,0.2
810,0.5618,0.076
811,0.562,0.175
812,0.5622,0.086
813,0.5624,0.154
814,0.5626,0.144
815,0.5628,0.128
816,0.563,0.106
817,0.5632,0.16
818,0.5634,0.167
819,0.5636,0.054
820,0.5638,0.185
821,0.564,0.146
822,0.5642,0.099
823,0.5644,0.124
824,0.5646,0.172
825,0.5648,0.121
826,0.565,0.103
827,0.5652,0.019
828,0.5654,-1.039
829,0.5656,-1.102
830,0.5658,-0.885
831,0.566,-0.868
832,0.5662,-0.409
833,0.5664,0.146
834,0.5666,0.104
835,0.5668,0.094
836,0.567,0.215
837,0.5672,0.07
838,0.5674,0.12
839,0.5676,0.165
840,0.5678,0.162
841,0.568,0.051
842,0.5682,0.181
843,0.5684,0.173
844,0.5686,0.064
845,0.5688,0.162
846,0.569,0.144
847,0.5692,0.13
848,0.5694,0.101
849,0.5696,0.163
850,0.5698,0.131
851,0.57,0.121
852,0.5702,-0.019
853,0.5704,-1.004
854,0.5706,-1.049
855,0.5708,-0.838
856,0.571,-0.807
857,0.5712,-0.367
858,0.5714,0.181
859,0.5716,0.088
860,0.5718,0.094
861,0.572,0.211
862,0.5722,0.083
863,0.5724,0.114
864,0.5726,0.155
865,0.5728,0.176
866,0.573,0.051
867,0.5732,0.18
868,0.5734,0.163
869,0.5736,0.079
870,0.5738,0.153
871,0.574,0.136
872,0.5742,0.138
873,0.5744,0.106
874,0.5746,0.155
875,0.5748,0.129
876,0.575,0.133
877,0.5752,-0.467
878,0.5754,-0.928
879,0.5756,-1.145
880,0.5758,-0.866
881,0.576,-0.743
882,0.5762,-0.273
883,0.5764,0.285
884,0.5766,0.026
885,0.5768,0.104
886,0.577,0.205
887,0.5772,0.121
888,0.5774,0.087
889,0.5776,0.143
890,0.5778,0.201
891,0.578,0.052
892,0.5782,0.172
893,0.5784,0.136
894,0.5786,0.131
895,0.5788,0.135
896,0.579,0.105
897,0.5792,0.175
898,0.5794,0.112
899,0.5796,0.126
900,0.5798,0.128
901,0.58,0.172
902,0.5802,-0.638
903,0.5804,-0.909
904,0.5806,-1.077
905,0.5808,-0.842
906,0.581,-0.659
907,0.5812,-0.192
908,0.5814,0.289
909,0.5816,0.035
910,0.5818,0.12
911,0.582,0.167
912,0.5822,0.144
913,0.5824,0.096
914,0.5826,0.131
915,0.5828,0.18
916,0.583,0.083
917,0.5832,0.169
918,0.5834,0.103
919,0.5836,0.157
920,0.5838,0.138
921,0.584,0.095
922,0.5842,0.163
923,0.5844,0.139
924,0.5846,0.119
925,0.5848,0.114
926,0.585,0.18
927,0.5852,-0.794
928,0.5854,-0.907
929,0.5856,-1.033
930,0.5858,-0.833
931,0.586,-0.585
932,0.5862,-0.121
933,0.5864,0.272
934,0.5866,0.043
935,0.5868,0.14
936,0.587,0.136
937,0.5872,0.157
938,0.5874,0.108
939,0.5876,0.126
940,0.5878,0.161
941,0.588,0.111
942,0.5882,0.168
943,0.5884,0.082
944,0.5886,0.173
945,0.5888,0.138
946,0.589,0.092
947,0.5892,0.152
948,0.5894,0.154
949,0.5896,0.117
950,0.5898,0.11
951,0.59,0.091
952,0.5902,-1.068
953,0.5904,-1.084
954,0.5906,-0.94
955,0.5908,-0.9
956,0.591,-0.463
957,0.5912,0.066
958,0.5914,0.157
959,0.5916,0.087
960,0.5918,0.195
961,0.592,0.075
962,0.5922,0.138
963,0.5924,0.163
964,0.5926,0.14
965,0.5928,0.081
966,0.593,0.172
967,0.5932,0.175
968,0.5934,0.05
969,0.5936,0.175
970,0.5938,0.15
971,0.594,0.109
972,0.5942,0.112
973,0.5944,0.171
974,0.5946,0.127
975,0.5948,0.106
976,0.595,0.066
977,0.5952,-1.039
978,0.5954,-1.043
979,0.5956,-0.867
980,0.5958,-0.831
981,0.596,-0.409
982,0.5962,0.139
983,0.5964,0.119
984,0.5966,0.087
985,0.5968,0.209
986,0.597,0.079
987,0.5972,0.125
988,0.5974,0.155
989,0.5976,0.168
990,0.5978,0.058
991,0.598,0.175
992,0.5982,0.171
993,0.5984,0.066
994,0.5986,0.163
995,0.5988,0.144
996,0.599,0.129
997,0.5992,0.106
998,0.5994,0.163
999,0.5996,0.129
1000,0.5998,0.123
1001,0.6,-0.169
1002,0.6002,-0.972
1003,0.6004,-1.126
1004,0.6006,-0.848
1005,0.6008,-0.799
1006,0.601,-0.331
1007,0.6012,0.234
1008,0.6014,0.05
1009,0.6016,0.102
1010,0.6018,0.217
1011,0.602,0.093
1012,0.6022,0.098
1013,0.6024,0.157
1014,0.6026,0.188
1015,0.6028,0.041
1016,0.603,0.18
1017,0.6032,0.158
1018,0.6034,0.096
1019,0.6036,0.142
1020,0.6038,0.127
1021,0.604,0.158
1022,0.6042,0.102
1023,0.6044,0.146
1024,0.6046,0.132
1025,0.6048,0.146
1026,0.605,-0.665
1027,0.6052,-0.932
1028,0.6054,-1.108
1029,0.6056,-0.868
1030,0.6058,-0.681
1031,0.606,-0.208
1032,0.6062,0.293
1033,0.6064,0.03
1034,0.6066,0.114
1035,0.6068,0.172
1036,0.607,0.142
1037,0.6072,0.095
1038,0.6074,0.131
1039,0.6076,0.188
1040,0.6078,0.081
1041,0.608,0.169
1042,0.6082,0.105
1043,0.6084,0.158
1044,0.6086,0.14
1045,0.6088,0.091
1046,0.609,0.167
1047,0.6092,0.136
1048,0.6094,0.12
1049,0.6096,0.114
1050,0.6098,0.185
1051,0.61,-0.651
1052,0.6102,-0.892
1053,0.6104,-1.047
1054,0.6106,-0.804
1055,0.6108,-0.619
1056,0.611,-0.158
1057,0.6112,0.283
1058,0.6114,0.039
1059,0.6116,0.127
1060,0.6118,0.152
1061,0.612,0.151
1062,0.6122,0.102
1063,0.6124,0.131
1064,0.6126,0.171
1065,0.6128,0.096
1066,0.613,0.169
1067,0.6132,0.093
1068,0.6134,0.165
1069,0.6136,0.138
1070,0.6138,0.096
1071,0.614,0.157
1072,0.6142,0.148
1073,0.6144,0.119
1074,0.6146,0.112
1075,0.6148,0.157
1076,0.615,-1.024
1077,0.6152,-1.009
1078,0.6154,-0.984
1079,0.6156,-0.888
1080,0.6158,-0.52
1081,0.616,-0.02
1082,0.6162,0.214
1083,0.6164,0.073
1084,0.6166,0.167
1085,0.6168,0.093
1086,0.617,0.157
1087,0.6172,0.141
1088,0.6174,0.126
1089,0.6176,0.116
1090,0.6178,0.153
1091,0.618,0.171
1092,0.6182,0.054
1093,0.6184,0.182
1094,0.6186,0.149
1095,0.6188,0.093
1096,0.619,0.129
1097,0.6192,0.171
1098,0.6194,0.119
1099,0.6196,0.102
1100,0.6198,0.081
1101,0.62,-1.058
1102,0.6202,-1.073
1103,0.6204,-0.88
1104,0.6206,-0.86
1105,0.6208,-0.423
1106,0.621,0.118
1107,0.6212,0.131
1108,0.6214,0.084
1109,0.6216,0.21
1110,0.6218,0.075
1111,0.622,0.129
1112,0.6222,0.157
1113,0.6224,0.158
1114,0.6226,0.064
1115,0.6228,0.176
1116,0.623,0.173
1117,0.6232,0.057
1118,0.6234,0.166
1119,0.6236,0.144
1120,0.6238,0.121
1121,0.624,0.104
1122,0.6242,0.166
1123,0.6244,0.129
1124,0.6246,0.118
1125,0.6248,-0.003
1126,0.625,-1.011
1127,0.6252,-1.07
1128,0.6254,-0.858
1129,0.6256,-0.816
1130,0.6258,-0.377
1131,0.626,0.173
1132,0.6262,0.092
1133,0.6264,0.098
1134,0.6266,0.209
1135,0.6268,0.081
1136,0.627,0.119
1137,0.6272,0.156
1138,0.6274,0.175
1139,0.6276,0.049
1140,0.6278,0.179
1141,0.628,0.166
1142,0.6282,0.075
1143,0.6284,0.156
1144,0.6286,0.139
1145,0.6288,0.139
1146,0.629,0.102
1147,0.6292,0.16
1148,0.6294,0.129
1149,0.6296,0.13
1150,0.6298,-0.465
1151,0.63,-0.936
1152,0.6302,-1.144
1153,0.6304,-0.869
1154,0.6306,-0.751
1155,0.6308,-0.28
1156,0.631,0.287
1157,0.6312,0.027
1158,0.6314,0.102
1159,0.6316,0.205
1160,0.6318,0.123
1161,0.632,0.087
1162,0.6322,0.142
1163,0.6324,0.201
1164,0.6326,0.054
1165,0.6328,0.171
1166,0.633,0.136
1167,0.6332,0.131
1168,0.6334,0.138
1169,0.6336,0.102
1170,0.6338,0.174
1171,0.634,0.114
1172,0.6342,0.126
1173,0.6344,0.126
1174,0.6346,0.172
1175,0.6348,-0.61
1176,0.635,-0.903
1177,0.6352,-1.077
1178,0.6354,-0.825
1179,0.6356,-0.669
1180,0.6358,-0.213
1181,0.636,0.293
1182,0.6362,0.034
1183,0.6364,0.116
1184,0.6366,0.173
1185,0.6368,0.144
1186,0.637,0.093
1187,0.6372,0.131
1188,0.6374,0.188
1189,0.6376,0.08
1190,0.6378,0.167
1191,0.638,0.106
1192,0.6382,0.157
1193,0.6384,0.136
1194,0.6386,0.096
1195,0.6388,0.166
1196,0.639,0.138
1197,0.6392,0.116
1198,0.6394,0.115
1199,0.6396,0.18
1200,0.6398,-0.836
1201,0.64,-0.931
1202,0.6402,-1.045
1203,0.6404,-0.858
1204,0.6406,-0.596
1205,0.6408,-0.129
1206,0.641,0.272
1207,0.6412,0.045
1208,0.6414,0.133
1209,0.6416,0.133
1210,0.6418,0.159
1211,0.642,0.111
1212,0.6422,0.124
1213,0.6424,0.162
1214,0.6426,0.112
1215,0.6428,0.165
1216,0.643,0.08
1217,0.6432,0.177
1218,0.6434,0.14
1219,0.6436,0.088
1220,0.6438,0.153
1221,0.644,0.154
1222,0.6442,0.115
1223,0.6444,0.107
1224,0.6446,0.146
1225,0.6448,-1.047
1226,0.645,-1.024
1227,0.6452,-0.943
1228,0.6454,-0.882
1229,0.6456,-0.482
1230,0.6458,0.029
1231,0.646,0.19
1232,0.6462,0.073
1233,0.6464,0.186
1234,0.6466,0.084
1235,0.6468,0.148
1236,0.647,0.148
1237,0.6472,0.136
1238,0.6474,0.098
1239,0.6476,0.162
1240,0.6478,0.177
1241,0.648,0.053
1242,0.6482,0.18
1243,0.6484,0.15
1244,0.6486,0.102
1245,0.6488,0.123
1246,0.649,0.17
1247,0.6492,0.123
1248,0.6494,0.105
1249,0.6496,0.093
1250,0.6498,-1.045
1251,0.65,-1.039
1252,0.6502,-0.89
1253,0.6504,-0.846
1254,0.6506,-0.432
1255,0.6508,0.103
1256,0.651,0.142
1257,0.6512,0.084
1258,0.6514,0.203
1259,0.6516,0.077
1260,0.6518,0.132
1261,0.652,0.154
1262,0.6522,0.157
1263,0.6524,0.068
1264,0.6526,0.174
1265,0.6528,0.172
1266,0.653,0.058
1267,0.6532,0.167
1268,0.6534,0.146
1269,0.6536,0.123
1270,0.6538,0.109
1271,0.654,0.168
1272,0.6542,0.129
1273,0.6544,0.117
1274,0.6546,-0.075
1275,0.6548,-0.997
1276,0.655,-1.106
1277,0.6552,-0.86
1278,0.6554,-0.822
1279,0.6556,-0.36
1280,0.6558,0.196
1281,0.656,0.074
1282,0.6562,0.1
1283,0.6564,0.217
1284,0.6566,0.08
1285,0.6568,0.109
1286,0.657,0.16
1287,0.6572,0.18
1288,0.6574,0.047
1289,0.6576,0.181
1290,0.6578,0.165
1291,0.658,0.081
1292,0.6582,0.152
1293,0.6584,0.133
1294,0.6586,0.148
1295,0.6588,0.1
1296,0.659,0.154
1297,0.6592,0.132
1298,0.6594,0.136
1299,0.6596,-0.403
1300,0.6598,-0.931
1301,0.66,-1.126
1302,0.6602,-0.848
1303,0.6604,-0.749
1304,0.6606,-0.281
1305,0.6608,0.28
1306,0.661,0.031
1307,0.6612,0.102
1308,0.6614,0.205
1309,0.6616,0.117
1310,0.6618,0.09
1311,0.662,0.146
1312,0.6622,0.197
1313,0.6624,0.053
1314,0.6626,0.172
1315,0.6628,0.136
1316,0.663,0.125
1317,0.6632,0.138
1318,0.6634,0.106
1319,0.6636,0.169
1320,0.6638,0.114
1321,0.664,0.13
1322,0.6642,0.126
1323,0.6644,0.169
1324,0.6646,-0.585
1325,0.6648,-0.904
1326,0.665,-1.084
1327,0.6652,-0.826
1328,0.6654,-0.662
1329,0.6656,-0.207
1330,0.6658,0.289
1331,0.666,0.033
1332,0.6662,0.114
1333,0.6664,0.175
1334,0.6666,0.139
1335,0.6668,0.096
1336,0.667,0.131
1337,0.6672,0.188
1338,0.6674,0.078
1339,0.6676,0.168
1340,0.6678,0.11
1341,0.668,0.153
1342,0.6682,0.137
1343,0.6684,0.098
1344,0.6686,0.165
1345,0.6688,0.133
1346,0.669,0.12
1347,0.6692,0.116
1348,0.6694,0.179
1349,0.6696,-0.807
1350,0.6698,-0.917
1351,0.67,-1.045
1352,0.6702,-0.855
1353,0.6704,-0.59
1354,0.6706,-0.131
1355,0.6708,0.275
1356,0.671,0.044
1357,0.6712,0.133
1358,0.6714,0.141
1359,0.6716,0.157
1360,0.6718,0.108
1361,0.672,0.125
1362,0.6722,0.167
1363,0.6724,0.109
1364,0.6726,0.165
1365,0.6728,0.083
1366,0.673,0.174
1367,0.6732,0.138
1368,0.6734,0.09
1369,0.6736,0.155
1370,0.6738,0.152
1371,0.674,0.114
1372,0.6742,0.11
1373,0.6744,0.152
1374,0.6746,-1.045
1375,0.6748,-1.02
1376,0.675,-0.953
1377,0.6752,-0.888
1378,0.6754,-0.502
1379,0.6756,0.009
1380,0.6758,0.201
1381,0.676,0.068
1382,0.6762,0.182
1383,0.6764,0.085
1384,0.6766,0.15
1385,0.6768,0.146
1386,0.677,0.133
1387,0.6772,0.102
1388,0.6774,0.157
1389,0.6776,0.174
1390,0.6778,0.053
1391,0.678,0.18
1392,0.6782,0.15
1393,0.6784,0.1
1394,0.6786,0.124
1395,0.6788,0.17
1396,0.679,0.123
1397,0.6792,0.105
1398,0.6794,0.103
1399,0.6796,-1.041
1400,0.6798,-1.026
1401,0.68,-0.888
1402,0.6802,-0.838
1403,0.6804,-0.423
1404,0.6806,0.1
1405,0.6808,0.143
1406,0.681,0.083
1407,0.6812,0.203
1408,0.6814,0.079
1409,0.6816,0.136
1410,0.6818,0.154
1411,0.682,0.157
1412,0.6822,0.075
1413,0.6824,0.171
1414,0.6826,0.17
1415,0.6828,0.062
1416,0.683,0.168
1417,0.6832,0.146
1418,0.6834,0.12
1419,0.6836,0.111
1420,0.6838,0.165
1421,0.684,0.127
1422,0.6842,0.118
1423,0.6844,-0.047
1424,0.6846,-1.021
1425,0.6848,-1.105
1426,0.685,-0.869
1427,0.6852,-0.842
1428,0.6854,-0.379
1429,0.6856,0.187
1430,0.6858,0.084
1431,0.686,0.095
1432,0.6862,0.218
1433,0.6864,0.08
1434,0.6866,0.112
1435,0.6868,0.161
1436,0.687,0.18
1437,0.6872,0.046
1438,0.6874,0.181
1439,0.6876,0.166
1440,0.6878,0.077
1441,0.688,0.153
1442,0.6882,0.137
1443,0.6884,0.142
1444,0.6886,0.101
1445,0.6888,0.157
1446,0.689,0.131
1447,0.6892,0.132
1448,0.6894,-0.343
1449,0.6896,-0.936
1450,0.6898,-1.127
1451,0.69,-0.844
1452,0.6902,-0.755
1453,0.6904,-0.288
1454,0.6906,0.27
1455,0.6908,0.037
1456,0.691,0.102
1457,0.6912,0.21
1458,0.6914,0.11
1459,0.6916,0.091
1460,0.6918,0.148
1461,0.692,0.195
1462,0.6922,0.049
1463,0.6924,0.174
1464,0.6926,0.141
1465,0.6928,0.121
1466,0.693,0.138
1467,0.6932,0.112
1468,0.6934,0.167
1469,0.6936,0.112
1470,0.6938,0.133
1471,0.694,0.128
1472,0.6942,0.163
1473,0.6944,-0.535
1474,0.6946,-0.911
1475,0.6948,-1.1
1476,0.695,-0.836
1477,0.6952,-0.688
1478,0.6954,-0.221
1479,0.6956,0.289
1480,0.6958,0.03
1481,0.696,0.112
1482,0.6962,0.181
1483,0.6964,0.137
1484,0.6966,0.093
1485,0.6968,0.135
1486,0.697,0.19
1487,0.6972,0.071
1488,0.6974,0.17
1489,0.6976,0.114
1490,0.6978,0.149
1491,0.698,0.136
1492,0.6982,0.1
1493,0.6984,0.167
1494,0.6986,0.13
1495,0.6988,0.121
1496,0.699,0.12
1497,0.6992,0.175
1498,0.6994,-0.86
1499,0.6996,-0.937
1500,0.6998,-1.04
1501,0.7,-0.865
1502,0.7002,-0.596
1503,0.7004,-0.121
1504,0.7006,0.272
1505,0.7008,0.043
1506,0.701,0.139
1507,0.7012,0.133
1508,0.7014,0.155
1509,0.7016,0.113
1510,0.7018,0.123
1511,0.702,0.16
1512,0.7022,0.114
1513,0.7024,0.167
1514,0.7026,0.077
1515,0.7028,0.175
1516,0.703,0.142
1517,0.7032,0.088
1518,0.7034,0.152
1519,0.7036,0.155
1520,0.7038,0.117
1521,0.704,0.106
1522,0.7042,0.166
1523,0.7044,-0.978
1524,0.7046,-0.97
1525,0.7048,-0.965
1526,0.705,-0.854
1527,0.7052,-0.502
1528,0.7054,-0.023
1529,0.7056,0.219
1530,0.7058,0.068
1531,0.706,0.165
1532,0.7062,0.096
1533,0.7064,0.156
1534,0.7066,0.135
1535,0.7068,0.127
1536,0.707,0.118
1537,0.7072,0.149
1538,0.7074,0.166
1539,0.7076,0.062
1540,0.7078,0.181
1541,0.708,0.146
1542,0.7082,0.096
1543,0.7084,0.131
1544,0.7086,0.17
1545,0.7088,0.118
1546,0.709,0.104
1547,0.7092,0.096
1548,0.7094,-1.049
1549,0.7096,-1.053
1550,0.7098,-0.917
1551,0.71,-0.875
1552,0.7102,-0.449
1553,0.7104,0.081
1554,0.7106,0.148
1555,0.7108,0.087
1556,0.711,0.199
1557,0.7112,0.075
1558,0.7114,0.138
1559,0.7116,0.157
1560,0.7118,0.146
1561,0.712,0.074
1562,0.7122,0.175
1563,0.7124,0.17
1564,0.7126,0.055
1565,0.7128,0.172
1566,0.713,0.148
1567,0.7132,0.114
1568,0.7134,0.109
1569,0.7136,0.17
1570,0.7138,0.126
1571,0.714,0.112
1572,0.7142,-0.017
1573,0.7144,-1.022
1574,0.7146,-1.091
1575,0.7148,-0.856
1576,0.715,-0.841
1577,0.7152,-0.39
1578,0.7154,0.173
1579,0.7156,0.093
1580,0.7158,0.091
1581,0.716,0.218
1582,0.7162,0.077
1583,0.7164,0.113
1584,0.7166,0.161
1585,0.7168,0.175
1586,0.717,0.048
1587,0.7172,0.181
1588,0.7174,0.168
1589,0.7176,0.073
1590,0.7178,0.157
1591,0.718,0.139
1592,0.7182,0.139
1593,0.7184,0.102
1594,0.7186,0.16
1595,0.7188,0.131
1596,0.719,0.13
1597,0.7192,-0.251
1598,0.7194,-0.942
1599,0.7196,-1.124
1600,0.7198,-0.838
1601,0.72,-0.775
1602,0.7202,-0.313
1603,0.7204,0.251
1604,0.7206,0.041
1605,0.7208,0.105
1606,0.721,0.215
1607,0.7212,0.096
1608,0.7214,0.096
1609,0.7216,0.153
1610,0.7218,0.194
1611,0.722,0.043
1612,0.7222,0.176
1613,0.7224,0.151
1614,0.7226,0.106
1615,0.7228,0.138
1616,0.723,0.121
1617,0.7232,0.163
1618,0.7234,0.103
1619,0.7236,0.14
1620,0.7238,0.133
1621,0.724,0.155
1622,0.7242,-0.542
1623,0.7244,-0.912
1624,0.7246,-1.106
1625,0.7248,-0.856
1626,0.725,-0.707
1627,0.7252,-0.247
1628,0.7254,0.293
1629,0.7256,0.028
1630,0.7258,0.108
1631,0.726,0.19
1632,0.7262,0.133
1633,0.7264,0.089
1634,0.7266,0.138
1635,0.7268,0.199
1636,0.727,0.064
1637,0.7272,0.167
1638,0.7274,0.121
1639,0.7276,0.146
1640,0.7278,0.131
1641,0.728,0.099
1642,0.7282,0.171
1643,0.7284,0.126
1644,0.7286,0.123
1645,0.7288,0.123
1646,0.729,0.176
1647,0.7292,-0.808
1648,0.7294,-0.923
1649,0.7296,-1.048
1650,0.7298,-0.85
1651,0.73,-0.619
1652,0.7302,-0.154
1653,0.7304,0.285
1654,0.7306,0.039
1655,0.7308,0.13
1656,0.731,0.142
1657,0.7312,0.155
1658,0.7314,0.106
1659,0.7316,0.125
1660,0.7318,0.17
1661,0.732,0.104
1662,0.7322,0.168
1663,0.7324,0.083
1664,0.7326,0.172
1665,0.7328,0.14
1666,0.733,0.089
1667,0.7332,0.157
1668,0.7334,0.151
1669,0.7336,0.114
1670,0.7338,0.108
1671,0.734,0.181
1672,0.7342,-0.872
1673,0.7344,-0.921
1674,0.7346,-1.003
1675,0.7348,-0.836
1676,0.735,-0.548
1677,0.7352,-0.079
1678,0.7354,0.251
1679,0.7356,0.054
1680,0.7358,0.149
1681,0.736,0.121
1682,0.7362,0.157
1683,0.7364,0.121
1684,0.7366,0.128
1685,0.7368,0.142
1686,0.737,0.128
1687,0.7372,0.167
1688,0.7374,0.075
1689,0.7376,0.178
1690,0.7378,0.142
1691,0.738,0.093
1692,0.7382,0.144
1693,0.7384,0.16
1694,0.7386,0.116
1695,0.7388,0.107
1696,0.739,0.123
1697,0.7392,-1.047
1698,0.7394,-1.038
1699,0.7396,-0.932
1700,0.7398,-0.886
1701,0.74,-0.473
1702,0.7402,0.045
1703,0.7404,0.173
1704,0.7406,0.081
1705,0.7408,0.188
1706,0.741,0.077
1707,0.7412,0.146
1708,0.7414,0.153
1709,0.7416,0.138
1710,0.7418,0.089
1711,0.742,0.169
1712,0.7422,0.169
1713,0.7424,0.052
1714,0.7426,0.178
1715,0.7428,0.149
1716,0.743,0.106
1717,0.7432,0.115
1718,0.7434,0.172
1719,0.7436,0.123
1720,0.7438,0.106
1721,0.744,-0.004
1722,0.7442,-1.029
1723,0.7444,-1.091
1724,0.7446,-0.858
1725,0.7448,-0.838
1726,0.745,-0.381
1727,0.7452,0.174
1728,0.7454,0.095
1729,0.7456,0.09
1730,0.7458,0.22
1731,0.746,0.078
1732,0.7462,0.114
1733,0.7464,0.161
1734,0.7466,0.172
1735,0.7468,0.053
1736,0.747,0.178
1737,0.7472,0.17
1738,0.7474,0.073
1739,0.7476,0.158
1740,0.7478,0.138
1741,0.748,0.139
1742,0.7482,0.103
1743,0.7484,0.158
1744,0.7486,0.132
1745,0.7488,0.131
1746,0.749,-0.102
1747,0.7492,-0.991
1748,0.7494,-1.092
1749,0.7496,-0.842
1750,0.7498,-0.801
1751,0.75,-0.343
1752,0.7502,0.218
1753,0.7504,0.063
1754,0.7506,0.1
1755,0.7508,0.215
1756,0.751,0.089
1757,0.7512,0.105
1758,0.7514,0.157
1759,0.7516,0.186
1760,0.7518,0.044
1761,0.752,0.18
1762,0.7522,0.157
1763,0.7524,0.09
1764,0.7526,0.146
1765,0.7528,0.129
1766,0.753,0.15
1767,0.7532,0.104
1768,0.7534,0.15
1769,0.7536,0.131
1770,0.7538,0.143
1771,0.754,-0.579
1772,0.7542,-0.928
1773,0.7544,-1.124
1774,0.7546,-0.866
1775,0.7548,-0.707
1776,0.755,-0.239
1777,0.7552,0.294
1778,0.7554,0.027
1779,0.7556,0.106
1780,0.7558,0.189
1781,0.756,0.133
1782,0.7562,0.09
1783,0.7564,0.136
1784,0.7566,0.194
1785,0.7568,0.067
1786,0.757,0.168
1787,0.7572,0.118
1788,0.7574,0.146
1789,0.7576,0.136
1790,0.7578,0.096
1791,0.758,0.173
1792,0.7582,0.125
1793,0.7584,0.121
1794,0.7586,0.12
1795,0.7588,0.179
1796,0.759,-0.775
1797,0.7592,-0.915
1798,0.7594,-1.047
1799,0.7596,-0.843
1800,0.7598,-0.607
1801,0.76,-0.144
1802,0.7602,0.28
1803,0.7604,0.043
1804,0.7606,0.129
1805,0.7608,0.144
1806,0.761,0.156
1807,0.7612,0.106
1808,0.7614,0.125
1809,0.7616,0.168
1810,0.7618,0.106
1811,0.762,0.167
1812,0.7622,0.086
1813,0.7624,0.172
1814,0.7626,0.139
1815,0.7628,0.09
1816,0.763,0.157
1817,0.7632,0.15
1818,0.7634,0.114
1819,0.7636,0.11
1820,0.7638,0.173
1821,0.764,-0.969
1822,0.7642,-0.965
1823,0.7644,-0.991
1824,0.7646,-0.864
1825,0.7648,-0.527
1826,0.765,-0.041
1827,0.7652,0.231
1828,0.7654,0.058
1829,0.7656,0.161
1830,0.7658,0.104
1831,0.766,0.156
1832,0.7662,0.131
1833,0.7664,0.128
1834,0.7666,0.128
1835,0.7668,0.14
1836,0.767,0.17
1837,0.7672,0.062
1838,0.7674,0.18
1839,0.7676,0.144
1840,0.7678,0.093
1841,0.768,0.136
1842,0.7682,0.165
1843,0.7684,0.117
1844,0.7686,0.104
1845,0.7688,0.08
1846,0.769,-1.057
1847,0.7692,-1.072
1848,0.7694,-0.899
1849,0.7696,-0.869
1850,0.7698,-0.421
1851,0.77,0.116
1852,0.7702,0.129
1853,0.7704,0.085
1854,0.7706,0.207
1855,0.7708,0.075
1856,0.771,0.131
1857,0.7712,0.159
1858,0.7714,0.153
1859,0.7716,0.067
1860,0.7718,0.175
1861,0.772,0.172
1862,0.7722,0.058
1863,0.7724,0.169
1864,0.7726,0.146
1865,0.7728,0.121
1866,0.773,0.106
1867,0.7732,0.167
1868,0.7734,0.129
1869,0.7736,0.114
1870,0.7738,-0.056
1871,0.774,-1.014
1872,0.7742,-1.094
1873,0.7744,-0.856
1874,0.7746,-0.822
1875,0.7748,-0.36
1876,0.775,0.197
1877,0.7752,0.079
1878,0.7754,0.096
1879,0.7756,0.218
1880,0.7758,0.083
1881,0.776,0.109
1882,0.7762,0.161
1883,0.7764,0.18
1884,0.7766,0.048
1885,0.7768,0.179
1886,0.777,0.163
1887,0.7772,0.081
1888,0.7774,0.152
1889,0.7776,0.133
1890,0.7778,0.144
1891,0.778,0.102
1892,0.7782,0.153
1893,0.7784,0.132
1894,0.7786,0.137
1895,0.7788,-0.363
1896,0.779,-0.94
1897,0.7792,-1.12
1898,0.7794,-0.844
1899,0.7796,-0.748
1900,0.7798,-0.279
1901,0.78,0.272
1902,0.7802,0.039
1903,0.7804,0.103
1904,0.7806,0.203
1905,0.7808,0.114
1906,0.781,0.093
1907,0.7812,0.146
1908,0.7814,0.195
1909,0.7816,0.054
1910,0.7818,0.175
1911,0.782,0.136
1912,0.7822,0.123
1913,0.7824,0.14
1914,0.7826,0.108
1915,0.7828,0.165
1916,0.783,0.114
1917,0.7832,0.133
1918,0.7834,0.125
1919,0.7836,0.166
1920,0.7838,-0.686
1921,0.784,-0.918
1922,0.7842,-1.089
1923,0.7844,-0.843
1924,0.7846,-0.637
1925,0.7848,-0.169
1926,0.785,0.289
1927,0.7852,0.035
1928,0.7854,0.123
1929,0.7856,0.161
1930,0.7858,0.144
1931,0.786,0.1
1932,0.7862,0.128
1933,0.7864,0.178
1934,0.7866,0.091
1935,0.7868,0.167
1936,0.787,0.098
1937,0.7872,0.165
1938,0.7874,0.138
1939,0.7876,0.092
1940,0.7878,0.163
1941,0.788,0.14
1942,0.7882,0.115
1943,0.7884,0.114
1944,0.7886,0.176
1945,0.7888,-0.929
1946,0.789,-0.951
1947,0.7892,-1.009
1948,0.7894,-0.869
1949,0.7896,-0.554
1950,0.7898,-0.075
1951,0.79,0.249
1952,0.7902,0.054
1953,0.7904,0.146
1954,0.7906,0.116
1955,0.7908,0.159
1956,0.791,0.121
1957,0.7912,0.125
1958,0.7914,0.139
1959,0.7916,0.131
1960,0.7918,0.166
1961,0.792,0.067
1962,0.7922,0.18
1963,0.7924,0.142
1964,0.7926,0.09
1965,0.7928,0.144
1966,0.793,0.161
1967,0.7932,0.114
1968,0.7934,0.106
1969,0.7936,0.114
1970,0.7938,-1.055
1971,0.794,-1.052
1972,0.7942,-0.913
1973,0.7944,-0.869
1974,0.7946,-0.448
1975,0.7948,0.068
1976,0.795,0.161
1977,0.7952,0.079
1978,0.7954,0.198
1979,0.7956,0.075
1980,0.7958,0.14
1981,0.796,0.155
1982,0.7962,0.144
1983,0.7964,0.082
1984,0.7966,0.169
1985,0.7968,0.174
1986,0.797,0.055
1987,0.7972,0.173
1988,0.7974,0.146
1989,0.7976,0.112
1990,0.7978,0.114
1991,0.798,0.169
1992,0.7982,0.128
1993,0.7984,0.111
1994,0.7986,0.013
1995,0.7988,-1.031
1996,0.799,-1.088
1997,0.7992,-0.877
1998,0.7994,-0.846
1999,0.7996,-0.395
2000,0.7998,0.159
1,0.8,0.099
2,0.8002,0.098
3,0.8004,0.213
4,0.8006,0.075
5,0.8008,0.119
6,0.801,0.162
7,0.8012,0.169
8,0.8014,0.051
9,0.8016,0.181
10,0.8018,0.168
11,0.802,0.068
12,0.8022,0.161
13,0.8024,0.143
14,0.8026,0.135
15,0.8028,0.101
16,0.803,0.163
17,0.8032,0.132
18,0.8034,0.125
19,0.8036,-0.226
20,0.8038,-0.957
21,0.804,-1.11
22,0.8042,-0.839
23,0.8044,-0.789
24,0.8046,-0.328
25,0.8048,0.243
26,0.805,0.053
27,0.8052,0.096
28,0.8054,0.215
29,0.8056,0.099
30,0.8058,0.094
31,0.806,0.156
32,0.8062,0.191
33,0.8064,0.045
34,0.8066,0.177
35,0.8068,0.152
36,0.807,0.102
37,0.8072,0.144
38,0.8074,0.121
39,0.8076,0.161
40,0.8078,0.106
41,0.808,0.143
42,0.8082,0.129
43,0.8084,0.156
44,0.8086,-0.549
45,0.8088,-0.919
46,0.809,-1.122
47,0.8092,-0.842
48,0.8094,-0.701
49,0.8096,-0.24
50,0.8098,0.298
51,0.81,0.026
52,0.8102,0.111
53,0.8104,0.189
54,0.8106,0.131
55,0.8108,0.092
56,0.811,0.133
57,0.8112,0.194
58,0.8114,0.066
59,0.8116,0.167
60,0.8118,0.121
61,0.812,0.146
62,0.8122,0.137
63,0.8124,0.098
64,0.8126,0.173
65,0.8128,0.125
66,0.813,0.119
67,0.8132,0.123
68,0.8134,0.179
69,0.8136,-0.698
70,0.8138,-0.904
71,0.814,-1.058
72,0.8142,-0.843
73,0.8144,-0.636
74,0.8146,-0.173
75,0.8148,0.288
76,0.815,0.037
77,0.8152,0.123
78,0.8154,0.158
79,0.8156,0.152
80,0.8158,0.1
81,0.816,0.129
82,0.8162,0.178
83,0.8164,0.092
84,0.8166,0.163
85,0.8168,0.098
86,0.817,0.166
87,0.8172,0.137
88,0.8174,0.092
89,0.8176,0.162
90,0.8178,0.143
91,0.818,0.117
92,0.8182,0.115
93,0.8184,0.167
94,0.8186,-0.981
95,0.8188,-0.973
96,0.819,-0.979
97,0.8192,-0.873
98,0.8194,-0.53
99,0.8196,-0.047
100,0.8198,0.235
101,0.82,0.062
102,0.8202,0.159
103,0.8204,0.1
104,0.8206,0.158
105,0.8208,0.132
106,0.821,0.125
107,0.8212,0.128
108,0.8214,0.142
109,0.8216,0.167
110,0.8218,0.062
111,0.822,0.182
112,0.8222,0.146
113,0.8224,0.091
114,0.8226,0.138
115,0.8228,0.167
116,0.823,0.115
117,0.8232,0.104
118,0.8234,0.125
119,0.8236,-1.035
120,0.8238,-1.029
121,0.824,-0.925
122,0.8242,-0.865
123,0.8244,-0.465
124,0.8246,0.048
125,0.8248,0.169
126,0.825,0.083
127,0.8252,0.187
128,0.8254,0.079
129,0.8256,0.146
130,0.8258,0.15
131,0.826,0.14
132,0.8262,0.087
133,0.8264,0.169
134,0.8266,0.169
135,0.8268,0.054
136,0.827,0.178
137,0.8272,0.149
138,0.8274,0.106
139,0.8276,0.115
140,0.8278,0.173
141,0.828,0.123
142,0.8282,0.106
143,0.8284,0.088
144,0.8286,-1.034
145,0.8288,-1.02
146,0.829,-0.886
147,0.8292,-0.84
148,0.8294,-0.421
149,0.8296,0.109
150,0.8298,0.14
151,0.83,0.086
152,0.8302,0.201
153,0.8304,0.079
154,0.8306,0.133
155,0.8308,0.153
156,0.831,0.157
157,0.8312,0.068
158,0.8314,0.175
159,0.8316,0.169
160,0.8318,0.064
161,0.832,0.166
162,0.8322,0.146
163,0.8324,0.121
164,0.8326,0.109
165,0.8328,0.167
166,0.833,0.126
167,0.8332,0.118
168,0.8334,-0.22
169,0.8336,-0.967
170,0.8338,-1.143
171,0.834,-0.854
172,0.8342,-0.808
173,0.8344,-0.335
174,0.8346,0.243
175,0.8348,0.046
176,0.835,0.1
177,0.8352,0.224
178,0.8354,0.091
179,0.8356,0.096
180,0.8358,0.16
181,0.836,0.191
182,0.8362,0.04
183,0.8364,0.178
184,0.8366,0.158
185,0.8368,0.1
186,0.837,0.142
187,0.8372,0.123
188,0.8374,0.161
189,0.8376,0.102
190,0.8378,0.143
191,0.838,0.133
192,0.8382,0.151
193,0.8384,-0.279
194,0.8386,-0.94
195,0.8388,-1.093
196,0.839,-0.83
197,0.8392,-0.758
198,0.8394,-0.297
199,0.8396,0.263
200,0.8398,0.041
201,0.84,0.104
202,0.8402,0.206
203,0.8404,0.106
204,0.8406,0.093
205,0.8408,0.148
206,0.841,0.194
207,0.8412,0.05
208,0.8414,0.177
209,0.8416,0.142
210,0.8418,0.117
211,0.842,0.14
212,0.8422,0.116
213,0.8424,0.16
214,0.8426,0.112
215,0.8428,0.138
216,0.843,0.129
217,0.8432,0.161
218,0.8434,-0.617
219,0.8436,-0.909
220,0.8438,-1.094
221,0.844,-0.85
222,0.8442,-0.675
223,0.8444,-0.207
224,0.8446,0.291
225,0.8448,0.031
226,0.845,0.114
227,0.8452,0.176
228,0.8454,0.142
229,0.8456,0.093
230,0.8458,0.132
231,0.846,0.188
232,0.8462,0.077
233,0.8464,0.17
234,0.8466,0.107
235,0.8468,0.155
236,0.847,0.135
237,0.8472,0.096
238,0.8474,0.167
239,0.8476,0.133
240,0.8478,0.121
241,0.848,0.117
242,0.8482,0.177
243,0.8484,-0.934
244,0.8486,-0.965
245,0.8488,-1.028
246,0.849,-0.877
247,0.8492,-0.579
248,0.8494,-0.092
249,0.8496,0.259
250,0.8498,0.047
251,0.85,0.15
252,0.8502,0.118
253,0.8504,0.157
254,0.8506,0.121
255,0.8508,0.125
256,0.851,0.144
257,0.8512,0.125
258,0.8514,0.17
259,0.8516,0.066
260,0.8518,0.181
261,0.852,0.143
262,0.8522,0.088
263,0.8524,0.146
264,0.8526,0.161
265,0.8528,0.115
266,0.853,0.104
267,0.8532,0.175
268,0.8534,-0.936
269,0.8536,-0.934
270,0.8538,-0.969
271,0.854,-0.825
272,0.8542,-0.505
273,0.8544,-0.028
274,0.8546,0.225
275,0.8548,0.064
276,0.855,0.162
277,0.8552,0.102
278,0.8554,0.157
279,0.8556,0.129
280,0.8558,0.133
281,0.856,0.124
282,0.8562,0.141
283,0.8564,0.168
284,0.8566,0.065
285,0.8568,0.177
286,0.857,0.143
287,0.8572,0.096
288,0.8574,0.133
289,0.8576,0.165
290,0.8578,0.119
291,0.858,0.106
292,0.8582,0.033
293,0.8584,-1.037
294,0.8586,-1.102
295,0.8588,-0.906
296,0.859,-0.883
297,0.8592,-0.432
298,0.8594,0.116
299,0.8596,0.117
300,0.8598,0.1
301,0.86,0.205
302,0.8602,0.068
303,0.8604,0.128
304,0.8606,0.168
305,0.8608,0.153
306,0.861,0.058
307,0.8612,0.185
308,0.8614,0.17
309,0.8616,0.054
310,0.8618,0.167
311,0.862,0.15
312,0.8622,0.124
313,0.8624,0.101
314,0.8626,0.171
315,0.8628,0.132
316,0.863,0.113
317,0.8632,-0.136
318,0.8634,-0.991
319,0.8636,-1.119
320,0.8638,-0.835
321,0.864,-0.818
322,0.8642,-0.356
323,0.8644,0.224
324,0.8646,0.067
325,0.8648,0.092
326,0.865,0.22
327,0.8652,0.092
328,0.8654,0.1
329,0.8656,0.161
330,0.8658,0.188
331,0.866,0.044
332,0.8662,0.178
333,0.8664,0.159
334,0.8666,0.091
335,0.8668,0.146
336,0.867,0.129
337,0.8672,0.15
338,0.8674,0.104
339,0.8676,0.148
340,0.8678,0.13
341,0.868,0.148
342,0.8682,-0.169
343,0.8684,-0.966
344,0.8686,-1.088
345,0.8688,-0.819
346,0.869,-0.764
347,0.8692,-0.31
348,0.8694,0.242
349,0.8696,0.055
350,0.8698,0.102
351,0.87,0.209
352,0.8702,0.104
353,0.8704,0.098
354,0.8706,0.152
355,0.8708,0.19
356,0.871,0.048
357,0.8712,0.178
358,0.8714,0.15
359,0.8716,0.104
360,0.8718,0.143
361,0.872,0.125
362,0.8722,0.155
363,0.8724,0.111
364,0.8726,0.141
365,0.8728,0.129
366,0.873,0.152
367,0.8732,-0.71
368,0.8734,-0.928
369,0.8736,-1.102
370,0.8738,-0.873
371,0.874,-0.671
372,0.8742,-0.204
373,0.8744,0.297
374,0.8746,0.031
375,0.8748,0.114
376,0.875,0.171
377,0.8752,0.149
378,0.8754,0.093
379,0.8756,0.129
380,0.8758,0.188
381,0.876,0.083
382,0.8762,0.165
383,0.8764,0.103
384,0.8766,0.162
385,0.8768,0.136
386,0.877,0.089
387,0.8772,0.169
388,0.8774,0.136
389,0.8776,0.117
390,0.8778,0.116
391,0.878,0.181
392,0.8782,-0.911
393,0.8784,-0.944
394,0.8786,-1.007
395,0.8788,-0.849
396,0.879,-0.555
397,0.8792,-0.08
398,0.8794,0.252
399,0.8796,0.053
400,0.8798,0.15
401,0.88,0.118
402,0.8802,0.155
403,0.8804,0.121
404,0.8806,0.127
405,0.8808,0.14
406,0.881,0.129
407,0.8812,0.169
408,0.8814,0.067
409,0.8816,0.18
410,0.8818,0.143
411,0.882,0.091
412,0.8822,0.142
413,0.8824,0.162
414,0.8826,0.115
415,0.8828,0.104
416,0.883,0.163
417,0.8832,-0.978
418,0.8834,-0.969
419,0.8836,-0.977
420,0.8838,-0.845
421,0.884,-0.501
422,0.8842,-0.007
423,0.8844,0.213
424,0.8846,0.066
425,0.8848,0.168
426,0.885,0.098
427,0.8852,0.154
428,0.8854,0.133
429,0.8856,0.136
430,0.8858,0.111
431,0.886,0.15
432,0.8862,0.169
433,0.8864,0.059
434,0.8866,0.178
435,0.8868,0.146
436,0.887,0.099
437,0.8872,0.128
438,0.8874,0.168
439,0.8876,0.119
440,0.8878,0.106
441,0.888,-0.048
442,0.8882,-1.028
443,0.8884,-1.133
444,0.8886,-0.877
445,0.8888,-0.86
446,0.889,-0.387
447,0.8892,0.182
448,0.8894,0.081
449,0.8896,0.095
450,0.8898,0.222
451,0.89,0.077
452,0.8902,0.109
453,0.8904,0.167
454,0.8906,0.173
455,0.8908,0.046
456,0.891,0.181
457,0.8912,0.17
458,0.8914,0.071
459,0.8916,0.158
460,0.8918,0.138
461,0.892,0.142
462,0.8922,0.1
463,0.8924,0.157
464,0.8926,0.135
465,0.8928,0.131
466,0.893,-0.249
467,0.8932,-0.955
468,0.8934,-1.121
469,0.8936,-0.833
470,0.8938,-0.781
471,0.894,-0.322
472,0.8942,0.259
473,0.8944,0.044
474,0.8946,0.102
475,0.8948,0.216
476,0.895,0.102
477,0.8952,0.092
478,0.8954,0.152
479,0.8956,0.195
480,0.8958,0.043
481,0.896,0.177
482,0.8962,0.151
483,0.8964,0.108
484,0.8966,0.14
485,0.8968,0.12
486,0.897,0.162
487,0.8972,0.106
488,0.8974,0.138
489,0.8976,0.132
490,0.8978,0.158
491,0.898,-0.415
492,0.8982,-0.913
493,0.8984,-1.103
494,0.8986,-0.831
495,0.8988,-0.713
496,0.899,-0.251
497,0.8992,0.28
498,0.8994,0.032
499,0.8996,0.109
500,0.8998,0.195
501,0.9,0.123
502,0.9002,0.093
503,0.9004,0.142
504,0.9006,0.194
505,0.9008,0.06
506,0.901,0.17
507,0.9012,0.131
508,0.9014,0.133
509,0.9016,0.135
510,0.9018,0.107
511,0.902,0.165
512,0.9022,0.121
513,0.9024,0.129
514,0.9026,0.125
515,0.9028,0.169
516,0.903,-0.843
517,0.9032,-0.933
518,0.9034,-1.046
519,0.9036,-0.875
520,0.9038,-0.598
521,0.904,-0.131
522,0.9042,0.276
523,0.9044,0.045
524,0.9046,0.131
525,0.9048,0.141
526,0.905,0.157
527,0.9052,0.109
528,0.9054,0.121
529,0.9056,0.167
530,0.9058,0.111
531,0.906,0.165
532,0.9062,0.081
533,0.9064,0.175
534,0.9066,0.142
535,0.9068,0.086
536,0.907,0.157
537,0.9072,0.152
538,0.9074,0.114
539,0.9076,0.108
540,0.9078,0.175
541,0.908,-0.974
542,0.9082,-0.968
543,0.9084,-0.978
544,0.9086,-0.859
545,0.9088,-0.524
546,0.909,-0.03
547,0.9092,0.226
548,0.9094,0.059
549,0.9096,0.167
550,0.9098,0.1
551,0.91,0.155
552,0.9102,0.13
553,0.9104,0.131
554,0.9106,0.121
555,0.9108,0.143
556,0.911,0.173
557,0.9112,0.059
558,0.9114,0.18
559,0.9116,0.148
560,0.9118,0.096
561,0.912,0.132
562,0.9122,0.168
563,0.9124,0.119
564,0.9126,0.106
565,0.9128,0.15
566,0.913,-1.022
567,0.9132,-0.986
568,0.9134,-0.942
569,0.9136,-0.849
570,0.9138,-0.476
571,0.914,0.037
572,0.9142,0.191
573,0.9144,0.066
574,0.9146,0.189
575,0.9148,0.088
576,0.915,0.146
577,0.9152,0.141
578,0.9154,0.146
579,0.9156,0.096
580,0.9158,0.156
581,0.916,0.175
582,0.9162,0.059
583,0.9164,0.174
584,0.9166,0.148
585,0.9168,0.106
586,0.917,0.123
587,0.9172,0.167
588,0.9174,0.124
589,0.9176,0.112
590,0.9178,-0.009
591,0.918,-1.03
592,0.9182,-1.106
593,0.9184,-0.875
594,0.9186,-0.848
595,0.9188,-0.384
596,0.919,0.167
597,0.9192,0.095
598,0.9194,0.093
599,0.9196,0.217
600,0.9198,0.075
601,0.92,0.116
602,0.9202,0.165
603,0.9204,0.168
604,0.9206,0.05
605,0.9208,0.18
606,0.921,0.168
607,0.9212,0.068
608,0.9214,0.161
609,0.9216,0.14
610,0.9218,0.138
611,0.922,0.102
612,0.9222,0.16
613,0.9224,0.131
614,0.9226,0.128
615,0.9228,-0.253
616,0.923,-0.955
617,0.9232,-1.124
618,0.9234,-0.848
619,0.9236,-0.785
620,0.9238,-0.316
621,0.924,0.252
622,0.9242,0.043
623,0.9244,0.1
624,0.9246,0.214
625,0.9248,0.102
626,0.925,0.094
627,0.9252,0.155
628,0.9254,0.194
629,0.9256,0.045
630,0.9258,0.176
631,0.926,0.15
632,0.9262,0.106
633,0.9264,0.14
634,0.9266,0.119
635,0.9268,0.161
636,0.927,0.106
637,0.9272,0.14
638,0.9274,0.131
639,0.9276,0.156
640,0.9278,-0.472
641,0.928,-0.923
642,0.9282,-1.109
643,0.9284,-0.836
644,0.9286,-0.713
645,0.9288,-0.247
646,0.929,0.282
647,0.9292,0.036
648,0.9294,0.106
649,0.9296,0.19
650,0.9298,0.129
651,0.93,0.093
652,0.9302,0.14
653,0.9304,0.193
654,0.9306,0.065
655,0.9308,0.175
656,0.931,0.121
657,0.9312,0.14
658,0.9314,0.137
659,0.9316,0.103
660,0.9318,0.167
661,0.932,0.126
662,0.9322,0.126
663,0.9324,0.121
664,0.9326,0.174
665,0.9328,-0.804
666,0.933,-0.925
667,0.9332,-1.063
668,0.9334,-0.854
669,0.9336,-0.601
670,0.9338,-0.136
671,0.934,0.276
672,0.9342,0.041
673,0.9344,0.131
674,0.9346,0.142
675,0.9348,0.152
676,0.935,0.11
677,0.9352,0.123
678,0.9354,0.167
679,0.9356,0.105
680,0.9358,0.167
681,0.936,0.086
682,0.9362,0.173
683,0.9364,0.14
684,0.9366,0.089
685,0.9368,0.159
686,0.937,0.148
687,0.9372,0.117
688,0.9374,0.111
689,0.9376,0.166
690,0.9378,-1.001
691,0.938,-0.984
692,0.9382,-0.974
693,0.9384,-0.876
694,0.9386,-0.515
695,0.9388,-0.029
696,0.939,0.223
697,0.9392,0.066
698,0.9394,0.163
699,0.9396,0.096
700,0.9398,0.155
701,0.94,0.136
702,0.9402,0.125
703,0.9404,0.121
704,0.9406,0.146
705,0.9408,0.168
706,0.941,0.06
707,0.9412,0.181
708,0.9414,0.148
709,0.9416,0.093
710,0.9418,0.133
711,0.942,0.167
712,0.9422,0.119
713,0.9424,0.104
714,0.9426,0.106
715,0.9428,-1.048
716,0.943,-1.043
717,0.9432,-0.904
718,0.9434,-0.859
719,0.9436,-0.434
720,0.9438,0.085
721,0.944,0.15
722,0.9442,0.083
723,0.9444,0.199
724,0.9446,0.077
725,0.9448,0.137
726,0.945,0.157
727,0.9452,0.148
728,0.9454,0.077
729,0.9456,0.17
730,0.9458,0.172
731,0.946,0.057
732,0.9462,0.169
733,0.9464,0.148
734,0.9466,0.114
735,0.9468,0.112
736,0.947,0.167
737,0.9472,0.129
738,0.9474,0.114
739,0.9476,-0.051
740,0.9478,-1.011
741,0.948,-1.104
742,0.9482,-0.866
743,0.9484,-0.825
744,0.9486,-0.356
745,0.9488,0.192
746,0.949,0.082
747,0.9492,0.096
748,0.9494,0.217
749,0.9496,0.081
750,0.9498,0.11
751,0.95,0.161
752,0.9502,0.177
753,0.9504,0.049
754,0.9506,0.18
755,0.9508,0.165
756,0.951,0.078
757,0.9512,0.152
758,0.9514,0.136
759,0.9516,0.142
760,0.9518,0.102
761,0.952,0.156
762,0.9522,0.131
763,0.9524,0.135
764,0.9526,-0.335
765,0.9528,-0.942
766,0.953,-1.123
767,0.9532,-0.846
768,0.9534,-0.761
769,0.9536,-0.283
770,0.9538,0.27
771,0.954,0.037
772,0.9542,0.104
773,0.9544,0.207
774,0.9546,0.112
775,0.9548,0.091
776,0.955,0.15
777,0.9552,0.194
778,0.9554,0.051
779,0.9556,0.175
780,0.9558,0.141
781,0.956,0.119
782,0.9562,0.138
783,0.9564,0.113
784,0.9566,0.163
785,0.9568,0.114
786,0.957,0.132
787,0.9572,0.129
788,0.9574,0.163
789,0.9576,-0.631
790,0.9578,-0.913
791,0.958,-1.093
792,0.9582,-0.838
793,0.9584,-0.661
794,0.9586,-0.194
795,0.9588,0.291
796,0.959,0.032
797,0.9592,0.119
798,0.9594,0.169
799,0.9596,0.142
800,0.9598,0.1
801,0.96,0.133
802,0.9602,0.184
803,0.9604,0.084
804,0.9606,0.169
805,0.9608,0.104
806,0.961,0.157
807,0.9612,0.138
808,0.9614,0.093
809,0.9616,0.165
810,0.9618,0.14
811,0.962,0.118
812,0.9622,0.116
813,0.9624,0.178
814,0.9626,-0.858
815,0.9628,-0.925
816,0.963,-1.026
817,0.9632,-0.854
818,0.9634,-0.572
819,0.9636,-0.102
820,0.9638,0.264
821,0.964,0.049
822,0.9642,0.142
823,0.9644,0.128
824,0.9646,0.157
825,0.9648,0.119
826,0.965,0.127
827,0.9652,0.154
828,0.9654,0.12
829,0.9656,0.167
830,0.9658,0.077
831,0.966,0.176
832,0.9662,0.142
833,0.9664,0.09
834,0.9666,0.151
835,0.9668,0.156
836,0.967,0.114
837,0.9672,0.108
838,0.9674,0.137
839,0.9676,-1.056
840,0.9678,-1.035
841,0.968,-0.941
842,0.9682,-0.885
843,0.9684,-0.48
844,0.9686,0.036
845,0.9688,0.186
846,0.969,0.074
847,0.9692,0.186
848,0.9694,0.081
849,0.9696,0.144
850,0.9698,0.15
851,0.97,0.138
852,0.9702,0.091
853,0.9704,0.165
854,0.9706,0.174
855,0.9708,0.054
856,0.971,0.178
857,0.9712,0.149
858,0.9714,0.102
859,0.9716,0.121
860,0.9718,0.17
861,0.972,0.125
862,0.9722,0.106
863,0.9724,0.043
864,0.9726,-1.039
865,0.9728,-1.077
866,0.973,-0.875
867,0.9732,-0.85
868,0.9734,-0.401
869,0.9736,0.14
870,0.9738,0.112
871,0.974,0.091
872,0.9742,0.211
873,0.9744,0.075
874,0.9746,0.123
875,0.9748,0.161
876,0.975,0.163
877,0.9752,0.058
878,0.9754,0.179
879,0.9756,0.17
880,0.9758,0.064
881,0.976,0.162
882,0.9762,0.142
883,0.9764,0.13
884,0.9766,0.104
885,0.9768,0.163
886,0.977,0.129
887,0.9772,0.121
888,0.9774,-0.157
889,0.9776,-0.989
890,0.9778,-1.12
891,0.978,-0.852
892,0.9782,-0.814
893,0.9784,-0.342
894,0.9786,0.227
895,0.9788,0.059
896,0.979,0.1
897,0.9792,0.219
898,0.9794,0.091
899,0.9796,0.1
900,0.9798,0.158
901,0.98,0.188
902,0.9802,0.044
903,0.9804,0.179
904,0.9806,0.159
905,0.9808,0.093
906,0.981,0.146
907,0.9812,0.129
908,0.9814,0.153
909,0.9816,0.104
910,0.9818,0.148
911,0.982,0.133
912,0.9822,0.149
913,0.9824,-0.45
914,0.9826,-0.922
915,0.9828,-1.123
916,0.983,-0.841
917,0.9832,-0.725
918,0.9834,-0.262
919,0.9836,0.285
920,0.9838,0.03
921,0.984,0.105
922,0.9842,0.199
923,0.9844,0.124
924,0.9846,0.089
925,0.9848,0.142
926,0.985,0.196
927,0.9852,0.058
928,0.9854,0.169
929,0.9856,0.131
930,0.9858,0.135
931,0.986,0.135
932,0.9862,0.105
933,0.9864,0.168
934,0.9866,0.12
935,0.9868,0.126
936,0.987,0.125
937,0.9872,0.173
938,0.9874,-0.671
939,0.9876,-0.91
940,0.9878,-1.078
941,0.988,-0.842
942,0.9882,-0.639
943,0.9884,-0.175
944,0.9886,0.288
945,0.9888,0.035
946,0.989,0.123
947,0.9892,0.163
948,0.9894,0.146
949,0.9896,0.1
950,0.9898,0.13
951,0.99,0.179
952,0.9902,0.089
953,0.9904,0.167
954,0.9906,0.1
955,0.9908,0.162
956,0.991,0.138
957,0.9912,0.093
958,0.9914,0.163
959,0.9916,0.142
960,0.9918,0.117
961,0.992,0.114
962,0.9922,0.175
963,0.9924,-0.932
964,0.9926,-0.945
965,0.9928,-0.997
966,0.993,-0.862
967,0.9932,-0.542
968,0.9934,-0.066
969,0.9936,0.247
970,0.9938,0.056
971,0.994,0.151
972,0.9942,0.113
973,0.9944,0.157
974,0.9946,0.125
975,0.9948,0.125
976,0.995,0.14
977,0.9952,0.137
978,0.9954,0.168
979,0.9956,0.066
980,0.9958,0.18
981,0.996,0.142
982,0.9962,0.088
983,0.9964,0.142
984,0.9966,0.163
985,0.9968,0.118
986,0.997,0.106
987,0.9972,0.131
988,0.9974,-1.045
989,0.9976,-1.022
990,0.9978,-0.932
991,0.998,-0.873
992,0.9982,-0.464
993,0.9984,0.047
994,0.9986,0.178
995,0.9988,0.078
996,0.999,0.189
997,0.9992,0.081
998,0.9994,0.144
999,0.9996,0.15
1000,0.9998,0.138
1001,1,0.091
1002,1.0002,0.165
1003,1.0004,0.173
1004,1.0006,0.055
1005,1.0008,0.175
1006,1.001,0.149
1007,1.0012,0.106
1008,1.0014,0.119
1009,1.0016,0.169
1010,1.0018,0.125
1011,1.002,0.107
1012,1.0022,0.087
1013,1.0024,-1.042
1014,1.0026,-1.029
1015,1.0028,-0.894
1016,1.003,-0.848
1017,1.0032,-0.423
1018,1.0034,0.113
1019,1.0036,0.138
1020,1.0038,0.084
1021,1.004,0.2
1022,1.0042,0.078
1023,1.0044,0.133
1024,1.0046,0.154
1025,1.0048,0.157
1026,1.005,0.071
1027,1.0052,0.172
1028,1.0054,0.171
1029,1.0056,0.062
1030,1.0058,0.167
1031,1.006,0.144
1032,1.0062,0.121
1033,1.0064,0.111
1034,1.0066,0.163
1035,1.0068,0.128
1036,1.007,0.118
1037,1.0072,-0.154
1038,1.0074,-0.979
1039,1.0076,-1.128
1040,1.0078,-0.857
1041,1.008,-0.813
1042,1.0082,-0.34
1043,1.0084,0.222
1044,1.0086,0.058
1045,1.0088,0.1
1046,1.009,0.219
1047,1.0092,0.087
1048,1.0094,0.102
1049,1.0096,0.161
1050,1.0098,0.182
1051,1.01,0.043
1052,1.0102,0.179
1053,1.0104,0.159
1054,1.0106,0.091
1055,1.0108,0.144
1056,1.011,0.128
1057,1.0112,0.154
1058,1.0114,0.1
1059,1.0116,0.148
1060,1.0118,0.131
1061,1.012,0.144
1062,1.0122,-0.389
1063,1.0124,-0.931
1064,1.0126,-1.125
1065,1.0128,-0.85
1066,1.013,-0.753
1067,1.0132,-0.283
1068,1.0134,0.278
1069,1.0136,0.031
1070,1.0138,0.104
1071,1.014,0.205
1072,1.0142,0.116
1073,1.0144,0.091
1074,1.0146,0.146
1075,1.0148,0.197
1076,1.015,0.053
1077,1.0152,0.174
1078,1.0154,0.138
1079,1.0156,0.126
1080,1.0158,0.136
1081,1.016,0.109
1082,1.0162,0.167
1083,1.0164,0.114
1084,1.0166,0.13
1085,1.0168,0.128
1086,1.017,0.167
1087,1.0172,-0.643
1088,1.0174,-0.906
1089,1.0176,-1.085
1090,1.0178,-0.839
1091,1.018,-0.662
1092,1.0182,-0.199
1093,1.0184,0.291
1094,1.0186,0.032
1095,1.0188,0.118
1096,1.019,0.169
1097,1.0192,0.143
1098,1.0194,0.096
1099,1.0196,0.13
1100,1.0198,0.186
1101,1.02,0.083
1102,1.0202,0.167
1103,1.0204,0.104
1104,1.0206,0.158
1105,1.0208,0.137
1106,1.021,0.094
1107,1.0212,0.165
1108,1.0214,0.137
1109,1.0216,0.12
1110,1.0218,0.114
1111,1.022,0.175
1112,1.0222,-0.922
1113,1.0224,-0.95
1114,1.0226,-1.022
1115,1.0228,-0.868
1116,1.023,-0.554
1117,1.0232,-0.089
1118,1.0234,0.255
1119,1.0236,0.055
1120,1.0238,0.144
1121,1.024,0.119
1122,1.0242,0.16
1123,1.0244,0.123
1124,1.0246,0.12
1125,1.0248,0.148
1126,1.025,0.129
1127,1.0252,0.165
1128,1.0254,0.072
1129,1.0256,0.18
1130,1.0258,0.142
1131,1.026,0.088
1132,1.0262,0.146
1133,1.0264,0.161
1134,1.0266,0.114
1135,1.0268,0.105
1136,1.027,0.155
1137,1.0272,-1.014
1138,1.0274,-0.988
1139,1.0276,-0.951
1140,1.0278,-0.869
1141,1.028,-0.495
1142,1.0282,-0.002
1143,1.0284,0.205
1144,1.0286,0.073
1145,1.0288,0.174
1146,1.029,0.09
1147,1.0292,0.154
1148,1.0294,0.142
1149,1.0296,0.13
1150,1.0298,0.111
1151,1.03,0.156
1152,1.0302,0.169
1153,1.0304,0.058
1154,1.0306,0.178
1155,1.0308,0.149
1156,1.031,0.096
1157,1.0312,0.129
1158,1.0314,0.169
1159,1.0316,0.123
1160,1.0318,0.106
1161,1.032,0.083
1162,1.0322,-1.035
1163,1.0324,-1.049
1164,1.0326,-0.898
1165,1.0328,-0.856
1166,1.033,-0.424
1167,1.0332,0.096
1168,1.0334,0.139
1169,1.0336,0.088
1170,1.0338,0.201
1171,1.034,0.075
1172,1.0342,0.136
1173,1.0344,0.159
1174,1.0346,0.151
1175,1.0348,0.07
1176,1.035,0.175
1177,1.0352,0.17
1178,1.0354,0.058
1179,1.0356,0.169
1180,1.0358,0.146
1181,1.036,0.119
1182,1.0362,0.109
1183,1.0364,0.167
1184,1.0366,0.129
1185,1.0368,0.116
1186,1.037,-0.039
1187,1.0372,-1.014
1188,1.0374,-1.086
1189,1.0376,-0.863
1190,1.0378,-0.835
1191,1.038,-0.375
1192,1.0382,0.182
1193,1.0384,0.087
1194,1.0386,0.096
1195,1.0388,0.216
1196,1.039,0.081
1197,1.0392,0.111
1198,1.0394,0.162
1199,1.0396,0.174
1200,1.0398,0.048
1201,1.04,0.181
1202,1.0402,0.166
1203,1.0404,0.076
1204,1.0406,0.155
1205,1.0408,0.138
1206,1.041,0.14
1207,1.0412,0.103
1208,1.0414,0.157
1209,1.0416,0.133
1210,1.0418,0.133
1211,1.042,-0.271
1212,1.0422,-0.953
1213,1.0424,-1.124
1214,1.0426,-0.836
1215,1.0428,-0.779
1216,1.043,-0.31
1217,1.0432,0.26
1218,1.0434,0.041
1219,1.0436,0.101
1220,1.0438,0.216
1221,1.044,0.103
1222,1.0442,0.094
1223,1.0444,0.153
1224,1.0446,0.194
1225,1.0448,0.045
1226,1.045,0.177
1227,1.0452,0.148
1228,1.0454,0.112
1229,1.0456,0.139
1230,1.0458,0.118
1231,1.046,0.165
1232,1.0462,0.107
1233,1.0464,0.138
1234,1.0466,0.131
1235,1.0468,0.159
1236,1.047,-0.483
1237,1.0472,-0.907
1238,1.0474,-1.095
1239,1.0476,-0.837
1240,1.0478,-0.7
1241,1.048,-0.243
1242,1.0482,0.285
1243,1.0484,0.03
1244,1.0486,0.112
1245,1.0488,0.191
1246,1.049,0.129
1247,1.0492,0.092
1248,1.0494,0.14
1249,1.0496,0.193
1250,1.0498,0.064
1251,1.05,0.17
1252,1.0502,0.125
1253,1.0504,0.14
1254,1.0506,0.136
1255,1.0508,0.104
1256,1.051,0.167
1257,1.0512,0.123
1258,1.0514,0.126
1259,1.0516,0.123
1260,1.0518,0.172
1261,1.052,-0.839
1262,1.0522,-0.937
1263,1.0524,-1.061
1264,1.0526,-0.872
1265,1.0528,-0.613
1266,1.053,-0.144
1267,1.0532,0.279
1268,1.0534,0.043
1269,1.0536,0.133
1270,1.0538,0.141
1271,1.054,0.157
1272,1.0542,0.107
1273,1.0544,0.121
1274,1.0546,0.167
1275,1.0548,0.108
1276,1.055,0.166
1277,1.0552,0.081
1278,1.0554,0.176
1279,1.0556,0.14
1280,1.0558,0.085
1281,1.056,0.157
1282,1.0562,0.15
1283,1.0564,0.114
1284,1.0566,0.109
1285,1.0568,0.171
1286,1.057,-0.97
1287,1.0572,-0.961
1288,1.0574,-0.97
1289,1.0576,-0.858
1290,1.0578,-0.518
1291,1.058,-0.039
1292,1.0582,0.229
1293,1.0584,0.063
1294,1.0586,0.162
1295,1.0588,0.101
1296,1.059,0.156
1297,1.0592,0.131
1298,1.0594,0.126
1299,1.0596,0.125
1300,1.0598,0.142
1301,1.06,0.167
1302,1.0602,0.062
1303,1.0604,0.181
1304,1.0606,0.143
1305,1.0608,0.092
1306,1.061,0.138
1307,1.0612,0.167
1308,1.0614,0.117
1309,1.0616,0.106
1310,1.0618,0.119
1311,1.062,-1.043
1312,1.0622,-1.033
1313,1.0624,-0.922
1314,1.0626,-0.872
1315,1.0628,-0.465
1316,1.063,0.049
1317,1.0632,0.169
1318,1.0634,0.083
1319,1.0636,0.19
1320,1.0638,0.077
1321,1.064,0.146
1322,1.0642,0.152
1323,1.0644,0.141
1324,1.0646,0.089
1325,1.0648,0.169
1326,1.065,0.171
1327,1.0652,0.055
1328,1.0654,0.177
1329,1.0656,0.148
1330,1.0658,0.108
1331,1.066,0.115
1332,1.0662,0.171
1333,1.0664,0.124
1334,1.0666,0.107
1335,1.0668,0.022
1336,1.067,-1.026
1337,1.0672,-1.076
1338,1.0674,-0.875
1339,1.0676,-0.85
1340,1.0678,-0.407
1341,1.068,0.14
1342,1.0682,0.11
1343,1.0684,0.093
1344,1.0686,0.213
1345,1.0688,0.071
1346,1.069,0.123
1347,1.0692,0.162
1348,1.0694,0.162
1349,1.0696,0.056
1350,1.0698,0.179
1351,1.07,0.169
1352,1.0702,0.066
1353,1.0704,0.161
1354,1.0706,0.143
1355,1.0708,0.131
1356,1.071,0.102
1357,1.0712,0.163
1358,1.0714,0.132
1359,1.0716,0.123
1360,1.0718,-0.105
1361,1.072,-0.99
1362,1.0722,-1.094
1363,1.0724,-0.846
1364,1.0726,-0.813
1365,1.0728,-0.35
1366,1.073,0.217
1367,1.0732,0.068
1368,1.0734,0.094
1369,1.0736,0.219
1370,1.0738,0.087
1371,1.074,0.105
1372,1.0742,0.158
1373,1.0744,0.182
1374,1.0746,0.045
1375,1.0748,0.179
1376,1.075,0.158
1377,1.0752,0.089
1378,1.0754,0.149
1379,1.0756,0.13
1380,1.0758,0.149
1381,1.076,0.103
1382,1.0762,0.15
1383,1.0764,0.131
1384,1.0766,0.142
1385,1.0768,-0.32
1386,1.077,-0.94
1387,1.0772,-1.117
1388,1.0774,-0.836
1389,1.0776,-0.759
1390,1.0778,-0.292
1391,1.078,0.266
1392,1.0782,0.038
1393,1.0784,0.102
1394,1.0786,0.209
1395,1.0788,0.108
1396,1.079,0.093
1397,1.0792,0.148
1398,1.0794,0.194
1399,1.0796,0.048
1400,1.0798,0.174
1401,1.08,0.141
1402,1.0802,0.118
1403,1.0804,0.138
1404,1.0806,0.114
1405,1.0808,0.166
1406,1.081,0.111
1407,1.0812,0.135
1408,1.0814,0.129
1409,1.0816,0.162
1410,1.0818,-0.552
1411,1.082,-0.909
1412,1.0822,-1.094
1413,1.0824,-0.838
1414,1.0826,-0.684
1415,1.0828,-0.22
1416,1.083,0.288
1417,1.0832,0.031
1418,1.0834,0.114
1419,1.0836,0.18
1420,1.0838,0.133
1421,1.084,0.093
1422,1.0842,0.133
1423,1.0844,0.19
1424,1.0846,0.072
1425,1.0848,0.171
1426,1.085,0.114
1427,1.0852,0.149
1428,1.0854,0.137
1429,1.0856,0.099
1430,1.0858,0.166
1431,1.086,0.129
1432,1.0862,0.121
1433,1.0864,0.119
1434,1.0866,0.177
1435,1.0868,-0.808
1436,1.087,-0.919
1437,1.0872,-1.046
1438,1.0874,-0.854
1439,1.0876,-0.6
1440,1.0878,-0.14
1441,1.088,0.275
1442,1.0882,0.041
1443,1.0884,0.133
1444,1.0886,0.138
1445,1.0888,0.153
1446,1.089,0.109
1447,1.0892,0.123
1448,1.0894,0.165
1449,1.0896,0.106
1450,1.0898,0.166
1451,1.09,0.082
1452,1.0902,0.172
1453,1.0904,0.138
1454,1.0906,0.087
1455,1.0908,0.156
1456,1.091,0.151
1457,1.0912,0.114
1458,1.0914,0.107
1459,1.0916,0.165
1460,1.0918,-0.986
1461,1.092,-0.978
1462,1.0922,-0.98
1463,1.0924,-0.871
1464,1.0926,-0.514
1465,1.0928,-0.037
1466,1.093,0.225
1467,1.0932,0.066
1468,1.0934,0.162
1469,1.0936,0.096
1470,1.0938,0.158
1471,1.094,0.137
1472,1.0942,0.124
1473,1.0944,0.123
1474,1.0946,0.146
1475,1.0948,0.166
1476,1.095,0.059
1477,1.0952,0.182
1478,1.0954,0.146
1479,1.0956,0.092
1480,1.0958,0.135
1481,1.096,0.167
1482,1.0962,0.118
1483,1.0964,0.103
1484,1.0966,0.107
1485,1.0968,-1.042
1486,1.097,-1.039
1487,1.0972,-0.918
1488,1.0974,-0.874
1489,1.0976,-0.454
1490,1.0978,0.063
1491,1.098,0.157
1492,1.0982,0.088
1493,1.0984,0.19
1494,1.0986,0.075
1495,1.0988,0.142
1496,1.099,0.158
1497,1.0992,0.14
1498,1.0994,0.082
1499,1.0996,0.174
1500,1.0998,0.169
1501,1.1,0.054
1502,1.1002,0.175
1503,1.1004,0.148
1504,1.1006,0.109
1505,1.1008,0.112
1506,1.101,0.171
1507,1.1012,0.125
1508,1.1014,0.108
1509,1.1016,-0.037
1510,1.1018,-1.014
1511,1.102,-1.104
1512,1.1022,-0.863
1513,1.1024,-0.847
1514,1.1026,-0.392
1515,1.1028,0.173
1516,1.103,0.089
1517,1.1032,0.093
1518,1.1034,0.22
1519,1.1036,0.076
1520,1.1038,0.112
1521,1.104,0.165
1522,1.1042,0.172
1523,1.1044,0.048
1524,1.1046,0.181
1525,1.1048,0.167
1526,1.105,0.071
1527,1.1052,0.156
1528,1.1054,0.14
1529,1.1056,0.138
1530,1.1058,0.102
1531,1.106,0.157
1532,1.1062,0.132
1533,1.1064,0.129
1534,1.1066,-0.217
1535,1.1068,-0.958
1536,1.107,-1.119
1537,1.1072,-0.843
1538,1.1074,-0.783
1539,1.1076,-0.315
1540,1.1078,0.244
1541,1.108,0.05
1542,1.1082,0.102
1543,1.1084,0.215
1544,1.1086,0.096
1545,1.1088,0.098
1546,1.109,0.157
1547,1.1092,0.191
1548,1.1094,0.045
1549,1.1096,0.178
1550,1.1098,0.151
1551,1.11,0.103
1552,1.1102,0.142
1553,1.1104,0.123
1554,1.1106,0.159
1555,1.1108,0.105
1556,1.111,0.142
1557,1.1112,0.131
1558,1.1114,0.152
1559,1.1116,-0.481
1560,1.1118,-0.915
1561,1.112,-1.103
1562,1.1122,-0.843
1563,1.1124,-0.712
1564,1.1126,-0.247
1565,1.1128,0.287
1566,1.113,0.03
1567,1.1132,0.107
1568,1.1134,0.191
1569,1.1136,0.127
1570,1.1138,0.092
1571,1.114,0.142
1572,1.1142,0.194
1573,1.1144,0.062
1574,1.1146,0.172
1575,1.1148,0.125
1576,1.115,0.14
1577,1.1152,0.137
1578,1.1154,0.102
1579,1.1156,0.168
1580,1.1158,0.121
1581,1.116,0.126
1582,1.1162,0.123
1583,1.1164,0.17
1584,1.1166,-0.789
1585,1.1168,-0.919
1586,1.117,-1.055
1587,1.1172,-0.854
1588,1.1174,-0.609
1589,1.1176,-0.146
1590,1.1178,0.281
1591,1.118,0.039
1592,1.1182,0.129
1593,1.1184,0.146
1594,1.1186,0.153
1595,1.1188,0.107
1596,1.119,0.125
1597,1.1192,0.17
1598,1.1194,0.104
1599,1.1196,0.167
1600,1.1198,0.087
1601,1.12,0.171
1602,1.1202,0.139
1603,1.1204,0.09
1604,1.1206,0.16
1605,1.1208,0.149
1606,1.121,0.116
1607,1.1212,0.112
1608,1.1214,0.179
1609,1.1216,-0.918
1610,1.1218,-0.94
1611,1.122,-1.005
1612,1.1222,-0.856
1613,1.1224,-0.545
1614,1.1226,-0.068
1615,1.1228,0.245
1616,1.123,0.054
1617,1.1232,0.153
1618,1.1234,0.112
1619,1.1236,0.157
1620,1.1238,0.125
1621,1.124,0.126
1622,1.1242,0.138
1623,1.1244,0.131
1624,1.1246,0.169
1625,1.1248,0.068
1626,1.125,0.178
1627,1.1252,0.143
1628,1.1254,0.091
1629,1.1256,0.142
1630,1.1258,0.161
1631,1.126,0.115
1632,1.1262,0.106
1633,1.1264,0.131
1634,1.1266,-1.043
1635,1.1268,-1.022
1636,1.127,-0.933
1637,1.1272,-0.874
1638,1.1274,-0.466
1639,1.1276,0.043
1640,1.1278,0.178
1641,1.128,0.078
1642,1.1282,0.187
1643,1.1284,0.08
1644,1.1286,0.148
1645,1.1288,0.149
1646,1.129,0.138
1647,1.1292,0.092
1648,1.1294,0.165
1649,1.1296,0.168
1650,1.1298,0.054
1651,1.13,0.179
1652,1.1302,0.148
1653,1.1304,0.105
1654,1.1306,0.12
1655,1.1308,0.171
1656,1.131,0.121
1657,1.1312,0.109
1658,1.1314,-0.047
1659,1.1316,-1.014
1660,1.1318,-1.115
1661,1.132,-0.869
1662,1.1322,-0.842
1663,1.1324,-0.375
1664,1.1326,0.178
1665,1.1328,0.087
1666,1.133,0.094
1667,1.1332,0.219
1668,1.1334,0.076
1669,1.1336,0.114
1670,1.1338,0.165
1671,1.134,0.173
1672,1.1342,0.049
1673,1.1344,0.182
1674,1.1346,0.167
1675,1.1348,0.074
1676,1.135,0.153
1677,1.1352,0.137
1678,1.1354,0.141
1679,1.1356,0.102
1680,1.1358,0.157
1681,1.136,0.133
1682,1.1362,0.131
1683,1.1364,-0.175
1684,1.1366,-0.972
1685,1.1368,-1.115
1686,1.137,-0.841
1687,1.1372,-0.797
1688,1.1374,-0.333
1689,1.1376,0.236
1690,1.1378,0.05
1691,1.138,0.103
1692,1.1382,0.217
1693,1.1384,0.092
1694,1.1386,0.099
1695,1.1388,0.159
1696,1.139,0.19
1697,1.1392,0.041
1698,1.1394,0.18
1699,1.1396,0.155
1700,1.1398,0.098
1701,1.14,0.142
1702,1.1402,0.127
1703,1.1404,0.155
1704,1.1406,0.102
1705,1.1408,0.143
1706,1.141,0.13
1707,1.1412,0.15
1708,1.1414,-0.505
1709,1.1416,-0.913
1710,1.1418,-1.111
1711,1.142,-0.846
1712,1.1422,-0.717
1713,1.1424,-0.256
1714,1.1426,0.289
1715,1.1428,0.026
1716,1.143,0.109
1717,1.1432,0.194
1718,1.1434,0.127
1719,1.1436,0.089
1720,1.1438,0.14
1721,1.144,0.197
1722,1.1442,0.059
1723,1.1444,0.169
1724,1.1446,0.128
1725,1.1448,0.142
1726,1.145,0.133
1727,1.1452,0.102
1728,1.1454,0.172
1729,1.1456,0.12
1730,1.1458,0.125
1731,1.146,0.125
1732,1.1462,0.172
1733,1.1464,-0.807
1734,1.1466,-0.923
1735,1.1468,-1.056
1736,1.147,-0.858
1737,1.1472,-0.612
1738,1.1474,-0.152
1739,1.1476,0.283
1740,1.1478,0.04
1741,1.148,0.129
1742,1.1482,0.148
1743,1.1484,0.156
1744,1.1486,0.107
1745,1.1488,0.124
1746,1.149,0.172
1747,1.1492,0.106
1748,1.1494,0.165
1749,1.1496,0.088
1750,1.1498,0.173
1751,1.15,0.14
1752,1.1502,0.088
1753,1.1504,0.16
1754,1.1506,0.15
1755,1.1508,0.113
1756,1.151,0.109
1757,1.1512,0.184
1758,1.1514,-0.824
1759,1.1516,-0.911
1760,1.1518,-1.016
1761,1.152,-0.835
1762,1.1522,-0.577
1763,1.1524,-0.108
1764,1.1526,0.264
1765,1.1528,0.048
1766,1.153,0.142
1767,1.1532,0.129
1768,1.1534,0.158
1769,1.1536,0.113
1770,1.1538,0.128
1771,1.154,0.153
1772,1.1542,0.119
1773,1.1544,0.167
1774,1.1546,0.079
1775,1.1548,0.174
1776,1.155,0.142
1777,1.1552,0.091
1778,1.1554,0.149
1779,1.1556,0.158
1780,1.1558,0.115
1781,1.156,0.109
1782,1.1562,0.148
1783,1.1564,-1.028
1784,1.1566,-1.006
1785,1.1568,-0.949
1786,1.157,-0.874
1787,1.1572,-0.49
1788,1.1574,0.007
1789,1.1576,0.2
1790,1.1578,0.075
1791,1.158,0.177
1792,1.1582,0.087
1793,1.1584,0.151
1794,1.1586,0.144
1795,1.1588,0.131
1796,1.159,0.106
1797,1.1592,0.158
1798,1.1594,0.169
1799,1.1596,0.056
1800,1.1598,0.18
1801,1.16,0.148
1802,1.1602,0.1
1803,1.1604,0.126
1804,1.1606,0.169
1805,1.1608,0.12
1806,1.161,0.106
1807,1.1612,0.093
1808,1.1614,-1.047
1809,1.1616,-1.042
1810,1.1618,-0.899
1811,1.162,-0.858
1812,1.1622,-0.436
1813,1.1624,0.096
1814,1.1626,0.142
1815,1.1628,0.085
1816,1.163,0.203
1817,1.1632,0.077
1818,1.1634,0.133
1819,1.1636,0.157
1820,1.1638,0.152
1821,1.164,0.069
1822,1.1642,0.175
1823,1.1644,0.17
1824,1.1646,0.058
1825,1.1648,0.168
1826,1.165,0.148
1827,1.1652,0.119
1828,1.1654,0.11
1829,1.1656,0.169
1830,1.1658,0.127
1831,1.166,0.114
1832,1.1662,-0.016
1833,1.1664,-1.017
1834,1.1666,-1.075
1835,1.1668,-0.859
1836,1.167,-0.829
1837,1.1672,-0.375
1838,1.1674,0.173
1839,1.1676,0.095
1840,1.1678,0.093
1841,1.168,0.215
1842,1.1682,0.079
1843,1.1684,0.115
1844,1.1686,0.159
1845,1.1688,0.17
1846,1.169,0.053
1847,1.1692,0.178
1848,1.1694,0.165
1849,1.1696,0.077
1850,1.1698,0.156
1851,1.17,0.138
1852,1.1702,0.138
1853,1.1704,0.104
1854,1.1706,0.159
1855,1.1708,0.132
1856,1.171,0.132
1857,1.1712,-0.349
1858,1.1714,-0.945
1859,1.1716,-1.144
1860,1.1718,-0.854
1861,1.172,-0.767
1862,1.1722,-0.29
1863,1.1724,0.271
1864,1.1726,0.035
1865,1.1728,0.102
1866,1.173,0.211
1867,1.1732,0.107
1868,1.1734,0.09
1869,1.1736,0.15
1870,1.1738,0.194
1871,1.174,0.048
1872,1.1742,0.175
1873,1.1744,0.142
1874,1.1746,0.119
1875,1.1748,0.138
1876,1.175,0.112
1877,1.1752,0.167
1878,1.1754,0.111
1879,1.1756,0.132
1880,1.1758,0.13
1881,1.176,0.165
1882,1.1762,-0.562
1883,1.1764,-0.909
1884,1.1766,-1.093
1885,1.1768,-0.833
1886,1.177,-0.682
1887,1.1772,-0.217
1888,1.1774,0.291
1889,1.1776,0.028
1890,1.1778,0.112
1891,1.178,0.179
1892,1.1782,0.138
1893,1.1784,0.094
1894,1.1786,0.135
1895,1.1788,0.188
1896,1.179,0.073
1897,1.1792,0.168
1898,1.1794,0.112
1899,1.1796,0.15
1900,1.1798,0.136
1901,1.18,0.096
1902,1.1802,0.165
1903,1.1804,0.131
1904,1.1806,0.12
1905,1.1808,0.119
1906,1.181,0.175
1907,1.1812,-0.869
1908,1.1814,-0.934
1909,1.1816,-1.035
1910,1.1818,-0.859
1911,1.182,-0.571
1912,1.1822,-0.112
1913,1.1824,0.268
1914,1.1826,0.048
1915,1.1828,0.138
1916,1.183,0.129
1917,1.1832,0.158
1918,1.1834,0.114
1919,1.1836,0.119
1920,1.1838,0.157
1921,1.184,0.117
1922,1.1842,0.163
1923,1.1844,0.077
1924,1.1846,0.178
1925,1.1848,0.14
1926,1.185,0.088
1927,1.1852,0.154
1928,1.1854,0.157
1929,1.1856,0.114
1930,1.1858,0.106
1931,1.186,0.153
1932,1.1862,-1.026
1933,1.1864,-1.004
1934,1.1866,-0.963
1935,1.1868,-0.882
1936,1.187,-0.499
1937,1.1872,-0.004
1938,1.1874,0.205
1939,1.1876,0.074
1940,1.1878,0.172
1941,1.188,0.089
1942,1.1882,0.153
1943,1.1884,0.142
1944,1.1886,0.129
1945,1.1888,0.111
1946,1.189,0.159
1947,1.1892,0.167
1948,1.1894,0.056
1949,1.1896,0.181
1950,1.1898,0.148
1951,1.19,0.095
1952,1.1902,0.127
1953,1.1904,0.171
1954,1.1906,0.118
1955,1.1908,0.104
1956,1.191,0.089
1957,1.1912,-1.042
1958,1.1914,-1.045
1959,1.1916,-0.891
1960,1.1918,-0.856
1961,1.192,-0.431
1962,1.1922,0.096
1963,1.1924,0.144
1964,1.1926,0.083
1965,1.1928,0.204
1966,1.193,0.075
1967,1.1932,0.136
1968,1.1934,0.156
1969,1.1936,0.151
1970,1.1938,0.074
1971,1.194,0.171
1972,1.1942,0.172
1973,1.1944,0.058
1974,1.1946,0.167
1975,1.1948,0.146
1976,1.195,0.118
1977,1.1952,0.111
1978,1.1954,0.168
1979,1.1956,0.128
1980,1.1958,0.115
1981,1.196,-0.054
1982,1.1962,-1.005
1983,1.1964,-1.104
1984,1.1966,-0.865
1985,1.1968,-0.828
1986,1.197,-0.361
1987,1.1972,0.188
1988,1.1974,0.077
1989,1.1976,0.101
1990,1.1978,0.217
1991,1.198,0.08
1992,1.1982,0.112
1993,1.1984,0.163
1994,1.1986,0.176
1995,1.1988,0.048
1996,1.199,0.181
1997,1.1992,0.165
1998,1.1994,0.077
1999,1.1996,0.153
2000,1.1998,0.136
1,1.2,0.144
2,1.2002,0.102
3,1.2004,0.156
4,1.2006,0.132
5,1.2008,0.135
6,1.201,-0.301
7,1.2012,-0.943
8,1.2014,-1.114
9,1.2016,-0.848
10,1.2018,-0.776
11,1.202,-0.311
12,1.2022,0.262
13,1.2024,0.039
14,1.2026,0.103
15,1.2028,0.212
16,1.203,0.106
17,1.2032,0.09
18,1.2034,0.153
19,1.2036,0.194
20,1.2038,0.045
21,1.204,0.177
22,1.2042,0.146
23,1.2044,0.113
24,1.2046,0.138
25,1.2048,0.117
26,1.205,0.163
27,1.2052,0.107
28,1.2054,0.138
29,1.2056,0.13
30,1.2058,0.16
31,1.206,-0.604
32,1.2062,-0.909
33,1.2064,-1.094
34,1.2066,-0.843
35,1.2068,-0.68
36,1.207,-0.22
37,1.2072,0.29
38,1.2074,0.03
39,1.2076,0.112
40,1.2078,0.18
41,1.208,0.138
42,1.2082,0.094
43,1.2084,0.132
44,1.2086,0.19
45,1.2088,0.077
46,1.209,0.169
47,1.2092,0.111
48,1.2094,0.152
49,1.2096,0.135
50,1.2098,0.096
51,1.21,0.168
52,1.2102,0.131
53,1.2104,0.119
54,1.2106,0.119
55,1.2108,0.18
56,1.211,-0.734
57,1.2112,-0.907
58,1.2114,-1.063
59,1.2116,-0.842
60,1.2118,-0.616
61,1.212,-0.154
62,1.2122,0.283
63,1.2124,0.039
64,1.2126,0.128
65,1.2128,0.15
66,1.213,0.151
67,1.2132,0.104
68,1.2134,0.126
69,1.2136,0.173
70,1.2138,0.102
71,1.214,0.163
72,1.2142,0.093
73,1.2144,0.168
74,1.2146,0.136
75,1.2148,0.093
76,1.215,0.16
77,1.2152,0.149
78,1.2154,0.116
79,1.2156,0.113
80,1.2158,0.169
81,1.216,-0.983
82,1.2162,-0.974
83,1.2164,-0.985
84,1.2166,-0.88
85,1.2168,-0.535
86,1.217,-0.051
87,1.2172,0.234
88,1.2174,0.064
89,1.2176,0.157
90,1.2178,0.102
91,1.218,0.16
92,1.2182,0.131
93,1.2184,0.121
94,1.2186,0.13
95,1.2188,0.143
96,1.219,0.165
97,1.2192,0.062
98,1.2194,0.186
99,1.2196,0.146
100,1.2198,0.091
101,1.22,0.138
102,1.2202,0.169
103,1.2204,0.117
104,1.2206,0.104
105,1.2208,0.099
106,1.221,-1.047
107,1.2212,-1.056
108,1.2214,-0.902
109,1.2216,-0.869
110,1.2218,-0.44
111,1.222,0.082
112,1.2222,0.149
113,1.2224,0.086
114,1.2226,0.199
115,1.2228,0.07
116,1.223,0.14
117,1.2232,0.159
118,1.2234,0.146
119,1.2236,0.076
120,1.2238,0.173
121,1.224,0.17
122,1.2242,0.054
123,1.2244,0.172
124,1.2246,0.149
125,1.2248,0.114
126,1.225,0.112
127,1.2252,0.17
128,1.2254,0.126
129,1.2256,0.11
130,1.2258,0.05
131,1.226,-1.029
132,1.2262,-1.045
133,1.2264,-0.883
134,1.2266,-0.842
135,1.2268,-0.405
136,1.227,0.127
137,1.2272,0.119
138,1.2274,0.092
139,1.2276,0.205
140,1.2278,0.076
141,1.228,0.128
142,1.2282,0.157
143,1.2284,0.16
144,1.2286,0.062
145,1.2288,0.178
146,1.229,0.167
147,1.2292,0.066
148,1.2294,0.163
149,1.2296,0.142
150,1.2298,0.125
151,1.23,0.106
152,1.2302,0.163
153,1.2304,0.131
154,1.2306,0.123
155,1.2308,-0.218
156,1.231,-0.961
157,1.2312,-1.13
158,1.2314,-0.854
159,1.2316,-0.804
160,1.2318,-0.327
161,1.232,0.242
162,1.2322,0.045
163,1.2324,0.103
164,1.2326,0.22
165,1.2328,0.094
166,1.233,0.096
167,1.2332,0.159
168,1.2334,0.189
169,1.2336,0.041
170,1.2338,0.179
171,1.234,0.155
172,1.2342,0.1
173,1.2344,0.143
174,1.2346,0.125
175,1.2348,0.16
176,1.235,0.102
177,1.2352,0.142
178,1.2354,0.132
179,1.2356,0.15
180,1.2358,-0.488
181,1.236,-0.913
182,1.2362,-1.104
183,1.2364,-0.839
184,1.2366,-0.707
185,1.2368,-0.243
186,1.237,0.287
187,1.2372,0.03
188,1.2374,0.11
189,1.2376,0.193
190,1.2378,0.126
191,1.238,0.091
192,1.2382,0.142
193,1.2384,0.193
194,1.2386,0.064
195,1.2388,0.171
196,1.239,0.125
197,1.2392,0.14
198,1.2394,0.133
199,1.2396,0.104
200,1.2398,0.167
201,1.24,0.121
202,1.2402,0.123
203,1.2404,0.125
204,1.2406,0.174
205,1.2408,-0.57
206,1.241,-0.893
207,1.2412,-1.072
208,1.2414,-0.822
209,1.2416,-0.661
210,1.2418,-0.209
211,1.242,0.283
212,1.2422,0.037
213,1.2424,0.117
214,1.2426,0.174
215,1.2428,0.138
216,1.243,0.096
217,1.2432,0.133
218,1.2434,0.187
219,1.2436,0.08
220,1.2438,0.169
221,1.244,0.112
222,1.2442,0.153
223,1.2444,0.135
224,1.2446,0.1
225,1.2448,0.163
226,1.245,0.135
227,1.2452,0.12
228,1.2454,0.119
229,1.2456,0.173
230,1.2458,-0.867
231,1.246,-0.934
232,1.2462,-1.045
233,1.2464,-0.868
234,1.2466,-0.585
235,1.2468,-0.121
236,1.247,0.272
237,1.2472,0.048
238,1.2474,0.137
239,1.2476,0.132
240,1.2478,0.159
241,1.248,0.114
242,1.2482,0.123
243,1.2484,0.162
244,1.2486,0.118
245,1.2488,0.163
246,1.249,0.078
247,1.2492,0.178
248,1.2494,0.139
249,1.2496,0.087
250,1.2498,0.154
251,1.25,0.157
252,1.2502,0.114
253,1.2504,0.107
254,1.2506,0.166
255,1.2508,-1.005
256,1.251,-0.977
257,1.2512,-0.959
258,1.2514,-0.866
259,1.2516,-0.509
260,1.2518,-0.017
261,1.252,0.216
262,1.2522,0.064
263,1.2524,0.172
264,1.2526,0.094
265,1.2528,0.152
266,1.253,0.138
267,1.2532,0.129
268,1.2534,0.112
269,1.2536,0.15
270,1.2538,0.17
271,1.254,0.059
272,1.2542,0.18
273,1.2544,0.148
274,1.2546,0.095
275,1.2548,0.132
276,1.255,0.167
277,1.2552,0.119
278,1.2554,0.106
279,1.2556,0.139
280,1.2558,-0.989
281,1.256,-0.978
282,1.2562,-0.928
283,1.2564,-0.842
284,1.2566,-0.472
285,1.2568,0.026
286,1.257,0.186
287,1.2572,0.081
288,1.2574,0.175
289,1.2576,0.087
290,1.2578,0.152
291,1.258,0.142
292,1.2582,0.136
293,1.2584,0.098
294,1.2586,0.161
295,1.2588,0.165
296,1.259,0.06
297,1.2592,0.176
298,1.2594,0.144
299,1.2596,0.104
300,1.2598,0.12
301,1.26,0.172
302,1.2602,0.121
303,1.2604,0.109
304,1.2606,-0.041
305,1.2608,-1.019
306,1.261,-1.124
307,1.2612,-0.893
308,1.2614,-0.869
309,1.2616,-0.401
310,1.2618,0.169
311,1.262,0.083
312,1.2622,0.102
313,1.2624,0.217
314,1.2626,0.074
315,1.2628,0.113
316,1.263,0.167
317,1.2632,0.167
318,1.2634,0.045
319,1.2636,0.186
320,1.2638,0.169
321,1.264,0.066
322,1.2642,0.157
323,1.2644,0.141
324,1.2646,0.138
325,1.2648,0.096
326,1.265,0.162
327,1.2652,0.133
328,1.2654,0.126
329,1.2656,-0.171
330,1.2658,-0.97
331,1.266,-1.107
332,1.2662,-0.829
333,1.2664,-0.801
334,1.2666,-0.344
335,1.2668,0.235
336,1.267,0.056
337,1.2672,0.096
338,1.2674,0.219
339,1.2676,0.094
340,1.2678,0.096
341,1.268,0.157
342,1.2682,0.188
343,1.2684,0.044
344,1.2686,0.178
345,1.2688,0.156
346,1.269,0.098
347,1.2692,0.142
348,1.2694,0.127
349,1.2696,0.154
350,1.2698,0.106
351,1.27,0.142
352,1.2702,0.131
353,1.2704,0.15
354,1.2706,-0.33
355,1.2708,-0.919
356,1.271,-1.11
357,1.2712,-0.831
358,1.2714,-0.733
359,1.2716,-0.283
360,1.2718,0.268
361,1.272,0.031
362,1.2722,0.109
363,1.2724,0.206
364,1.2726,0.108
365,1.2728,0.093
366,1.273,0.148
367,1.2732,0.194
368,1.2734,0.048
369,1.2736,0.175
370,1.2738,0.141
371,1.274,0.119
372,1.2742,0.133
373,1.2744,0.117
374,1.2746,0.165
375,1.2748,0.111
376,1.275,0.133
377,1.2752,0.13
378,1.2754,0.158
379,1.2756,-0.804
380,1.2758,-0.931
381,1.276,-1.073
382,1.2762,-0.884
383,1.2764,-0.632
384,1.2766,-0.169
385,1.2768,0.287
386,1.277,0.037
387,1.2772,0.12
388,1.2774,0.152
389,1.2776,0.156
390,1.2778,0.1
391,1.278,0.125
392,1.2782,0.178
393,1.2784,0.103
394,1.2786,0.161
395,1.2788,0.091
396,1.279,0.172
397,1.2792,0.137
398,1.2794,0.085
399,1.2796,0.163
400,1.2798,0.144
401,1.28,0.112
402,1.2802,0.112
403,1.2804,0.182
404,1.2806,-0.922
405,1.2808,-0.942
406,1.281,-0.986
407,1.2812,-0.842
408,1.2814,-0.546
409,1.2816,-0.07
410,1.2818,0.247
411,1.282,0.055
412,1.2822,0.153
413,1.2824,0.112
414,1.2826,0.157
415,1.2828,0.121
416,1.283,0.127
417,1.2832,0.137
418,1.2834,0.133
419,1.2836,0.17
420,1.2838,0.066
421,1.284,0.179
422,1.2842,0.144
423,1.2844,0.091
424,1.2846,0.14
425,1.2848,0.165
426,1.285,0.115
427,1.2852,0.105
428,1.2854,0.161
429,1.2856,-0.971
430,1.2858,-0.962
431,1.286,-0.97
432,1.2862,-0.844
433,1.2864,-0.495
434,1.2866,0.005
435,1.2868,0.203
436,1.287,0.072
437,1.2872,0.167
438,1.2874,0.095
439,1.2876,0.156
440,1.2878,0.133
441,1.288,0.133
442,1.2882,0.112
443,1.2884,0.151
444,1.2886,0.166
445,1.2888,0.06
446,1.289,0.179
447,1.2892,0.143
448,1.2894,0.1
449,1.2896,0.128
450,1.2898,0.169
451,1.29,0.119
452,1.2902,0.106
453,1.2904,-0.038
454,1.2906,-1.035
455,1.2908,-1.131
456,1.291,-0.883
457,1.2912,-0.871
458,1.2914,-0.404
459,1.2916,0.175
460,1.2918,0.084
461,1.292,0.093
462,1.2922,0.222
463,1.2924,0.078
464,1.2926,0.108
465,1.2928,0.168
466,1.293,0.172
467,1.2932,0.046
468,1.2934,0.18
469,1.2936,0.172
470,1.2938,0.069
471,1.294,0.156
472,1.2942,0.14
473,1.2944,0.14
474,1.2946,0.1
475,1.2948,0.161
476,1.295,0.132
477,1.2952,0.131
478,1.2954,-0.117
479,1.2956,-0.98
480,1.2958,-1.093
481,1.296,-0.822
482,1.2962,-0.791
483,1.2964,-0.358
484,1.2966,0.225
485,1.2968,0.066
486,1.297,0.095
487,1.2972,0.216
488,1.2974,0.093
489,1.2976,0.101
490,1.2978,0.154
491,1.298,0.19
492,1.2982,0.043
493,1.2984,0.178
494,1.2986,0.161
495,1.2988,0.093
496,1.299,0.144
497,1.2992,0.131
498,1.2994,0.152
499,1.2996,0.103
500,1.2998,0.149
501,1.3,0.131
502,1.3002,0.146
503,1.3004,-0.352
504,1.3006,-0.929
505,1.3008,-1.12
506,1.301,-0.84
507,1.3012,-0.748
508,1.3014,-0.288
509,1.3016,0.272
510,1.3018,0.032
511,1.302,0.105
512,1.3022,0.207
513,1.3024,0.113
514,1.3026,0.092
515,1.3028,0.15
516,1.303,0.198
517,1.3032,0.048
518,1.3034,0.175
519,1.3036,0.14
520,1.3038,0.121
521,1.304,0.136
522,1.3042,0.114
523,1.3044,0.167
524,1.3046,0.112
525,1.3048,0.133
526,1.305,0.129
527,1.3052,0.163
528,1.3054,-0.806
529,1.3056,-0.937
530,1.3058,-1.075
531,1.306,-0.876
532,1.3062,-0.64
533,1.3064,-0.169
534,1.3066,0.29
535,1.3068,0.037
536,1.307,0.123
537,1.3072,0.152
538,1.3074,0.153
539,1.3076,0.104
540,1.3078,0.123
541,1.308,0.178
542,1.3082,0.1
543,1.3084,0.165
544,1.3086,0.09
545,1.3088,0.173
546,1.309,0.139
547,1.3092,0.084
548,1.3094,0.163
549,1.3096,0.148
550,1.3098,0.113
551,1.31,0.11
552,1.3102,0.187
553,1.3104,-0.829
554,1.3106,-0.907
555,1.3108,-1.005
556,1.311,-0.825
557,1.3112,-0.563
558,1.3114,-0.102
559,1.3116,0.26
560,1.3118,0.052
561,1.312,0.142
562,1.3122,0.126
563,1.3124,0.157
564,1.3126,0.115
565,1.3128,0.125
566,1.313,0.15
567,1.3132,0.121
568,1.3134,0.167
569,1.3136,0.077
570,1.3138,0.177
571,1.314,0.14
572,1.3142,0.093
573,1.3144,0.148
574,1.3146,0.159
575,1.3148,0.114
576,1.315,0.108
577,1.3152,0.146
578,1.3154,-1.028
579,1.3156,-1.009
580,1.3158,-0.958
581,1.316,-0.883
582,1.3162,-0.492
583,1.3164,0.007
584,1.3166,0.196
585,1.3168,0.079
586,1.317,0.175
587,1.3172,0.087
588,1.3174,0.154
589,1.3176,0.146
590,1.3178,0.129
591,1.318,0.105
592,1.3182,0.161
593,1.3184,0.169
594,1.3186,0.054
595,1.3188,0.182
596,1.319,0.149
597,1.3192,0.1
598,1.3194,0.124
599,1.3196,0.17
600,1.3198,0.121
601,1.32,0.103
602,1.3202,0.056
603,1.3204,-1.052
604,1.3206,-1.071
605,1.3208,-0.883
606,1.321,-0.864
607,1.3212,-0.43
608,1.3214,0.124
609,1.3216,0.128
610,1.3218,0.087
611,1.322,0.212
612,1.3222,0.075
613,1.3224,0.127
614,1.3226,0.16
615,1.3228,0.159
616,1.323,0.063
617,1.3232,0.175
618,1.3234,0.174
619,1.3236,0.06
620,1.3238,0.166
621,1.324,0.143
622,1.3242,0.123
623,1.3244,0.106
624,1.3246,0.167
625,1.3248,0.129
626,1.325,0.12
627,1.3252,-0.003
628,1.3254,-1.004
629,1.3256,-1.054
630,1.3258,-0.853
631,1.326,-0.805
632,1.3262,-0.366
633,1.3264,0.169
634,1.3266,0.096
635,1.3268,0.095
636,1.327,0.213
637,1.3272,0.079
638,1.3274,0.12
639,1.3276,0.157
640,1.3278,0.172
641,1.328,0.056
642,1.3282,0.179
643,1.3284,0.166
644,1.3286,0.077
645,1.3288,0.155
646,1.329,0.138
647,1.3292,0.137
648,1.3294,0.106
649,1.3296,0.16
650,1.3298,0.129
651,1.33,0.131
652,1.3302,-0.391
653,1.3304,-0.941
654,1.3306,-1.142
655,1.3308,-0.867
656,1.331,-0.764
657,1.3312,-0.29
658,1.3314,0.276
659,1.3316,0.033
660,1.3318,0.102
661,1.332,0.21
662,1.3322,0.114
663,1.3324,0.09
664,1.3326,0.149
665,1.3328,0.199
666,1.333,0.05
667,1.3332,0.172
668,1.3334,0.14
669,1.3336,0.123
670,1.3338,0.137
671,1.334,0.109
672,1.3342,0.17
673,1.3344,0.112
674,1.3346,0.131
675,1.3348,0.126
676,1.335,0.166
677,1.3352,-0.572
678,1.3354,-0.904
679,1.3356,-1.084
680,1.3358,-0.826
681,1.336,-0.671
682,1.3362,-0.209
683,1.3364,0.289
684,1.3366,0.034
685,1.3368,0.114
686,1.337,0.176
687,1.3372,0.14
688,1.3374,0.096
689,1.3376,0.133
690,1.3378,0.188
691,1.338,0.077
692,1.3382,0.17
693,1.3384,0.108
694,1.3386,0.153
695,1.3388,0.136
696,1.339,0.098
697,1.3392,0.163
698,1.3394,0.136
699,1.3396,0.119
700,1.3398,0.117
701,1.34,0.178
702,1.3402,-0.813
703,1.3404,-0.922
704,1.3406,-1.048
705,1.3408,-0.856
706,1.341,-0.591
707,1.3412,-0.13
708,1.3414,0.273
709,1.3416,0.043
710,1.3418,0.133
711,1.342,0.138
712,1.3422,0.156
713,1.3424,0.109
714,1.3426,0.123
715,1.3428,0.165
716,1.343,0.108
717,1.3432,0.165
718,1.3434,0.084
719,1.3436,0.175
720,1.3438,0.14
721,1.344,0.088
722,1.3442,0.157
723,1.3444,0.151
724,1.3446,0.116
725,1.3448,0.11
726,1.345,0.154
727,1.3452,-1.034
728,1.3454,-1.008
729,1.3456,-0.967
730,1.3458,-0.891
731,1.346,-0.509
732,1.3462,-0.007
733,1.3464,0.209
734,1.3466,0.065
735,1.3468,0.174
736,1.347,0.089
737,1.3472,0.152
738,1.3474,0.142
739,1.3476,0.129
740,1.3478,0.112
741,1.348,0.152
742,1.3482,0.173
743,1.3484,0.056
744,1.3486,0.181
745,1.3488,0.149
746,1.349,0.096
747,1.3492,0.129
748,1.3494,0.169
749,1.3496,0.12
750,1.3498,0.102
751,1.35,0.098
752,1.3502,-1.03
753,1.3504,-1.036
754,1.3506,-0.893
755,1.3508,-0.846
756,1.351,-0.426
757,1.3512,0.091
758,1.3514,0.144
759,1.3516,0.086
760,1.3518,0.199
761,1.352,0.075
762,1.3522,0.139
763,1.3524,0.155
764,1.3526,0.149
765,1.3528,0.075
766,1.353,0.171
767,1.3532,0.169
768,1.3534,0.057
769,1.3536,0.171
770,1.3538,0.144
771,1.354,0.118
772,1.3542,0.109
773,1.3544,0.167
774,1.3546,0.126
775,1.3548,0.114
776,1.355,-0.115
777,1.3552,-0.996
778,1.3554,-1.123
779,1.3556,-0.872
780,1.3558,-0.831
781,1.356,-0.36
782,1.3562,0.203
783,1.3564,0.067
784,1.3566,0.096
785,1.3568,0.219
786,1.357,0.082
787,1.3572,0.104
788,1.3574,0.161
789,1.3576,0.179
790,1.3578,0.045
791,1.358,0.18
792,1.3582,0.163
793,1.3584,0.084
794,1.3586,0.149
795,1.3588,0.131
796,1.359,0.149
797,1.3592,0.1
798,1.3594,0.152
799,1.3596,0.136
800,1.3598,0.139
801,1.36,-0.332
802,1.3602,-0.944
803,1.3604,-1.127
804,1.3606,-0.838
805,1.3608,-0.763
806,1.361,-0.295
807,1.3612,0.27
808,1.3614,0.038
809,1.3616,0.101
810,1.3618,0.207
811,1.362,0.111
812,1.3622,0.091
813,1.3624,0.15
814,1.3626,0.196
815,1.3628,0.049
816,1.363,0.175
817,1.3632,0.14
818,1.3634,0.119
819,1.3636,0.139
820,1.3638,0.113
821,1.364,0.165
822,1.3642,0.113
823,1.3644,0.133
824,1.3646,0.127
825,1.3648,0.166
826,1.365,-0.573
827,1.3652,-0.901
828,1.3654,-1.083
829,1.3656,-0.831
830,1.3658,-0.665
831,1.366,-0.211
832,1.3662,0.287
833,1.3664,0.034
834,1.3666,0.114
835,1.3668,0.178
836,1.367,0.138
837,1.3672,0.094
838,1.3674,0.133
839,1.3676,0.188
840,1.3678,0.075
841,1.368,0.167
842,1.3682,0.112
843,1.3684,0.15
844,1.3686,0.135
845,1.3688,0.096
846,1.369,0.167
847,1.3692,0.131
848,1.3694,0.121
849,1.3696,0.119
850,1.3698,0.174
851,1.37,-0.905
852,1.3702,-0.953
853,1.3704,-1.033
854,1.3706,-0.878
855,1.3708,-0.574
856,1.371,-0.104
857,1.3712,0.263
858,1.3714,0.049
859,1.3716,0.143
860,1.3718,0.123
861,1.372,0.159
862,1.3722,0.12
863,1.3724,0.12
864,1.3726,0.152
865,1.3728,0.121
866,1.373,0.166
867,1.3732,0.072
868,1.3734,0.18
869,1.3736,0.141
870,1.3738,0.087
871,1.374,0.15
872,1.3742,0.157
873,1.3744,0.114
874,1.3746,0.106
875,1.3748,0.165
876,1.375,-0.999
877,1.3752,-0.977
878,1.3754,-0.958
879,1.3756,-0.858
880,1.3758,-0.493
881,1.376,-0.001
882,1.3762,0.207
883,1.3764,0.066
884,1.3766,0.175
885,1.3768,0.093
886,1.377,0.151
887,1.3772,0.138
888,1.3774,0.135
889,1.3776,0.111
890,1.3778,0.152
891,1.378,0.169
892,1.3782,0.056
893,1.3784,0.18
894,1.3786,0.146
895,1.3788,0.1
896,1.379,0.127
897,1.3792,0.169
898,1.3794,0.12
899,1.3796,0.106
900,1.3798,0.07
901,1.38,-1.045
902,1.3802,-1.061
903,1.3804,-0.899
904,1.3806,-0.862
905,1.3808,-0.417
906,1.381,0.114
907,1.3812,0.131
908,1.3814,0.086
909,1.3816,0.207
910,1.3818,0.074
911,1.382,0.131
912,1.3822,0.157
913,1.3824,0.157
914,1.3826,0.068
915,1.3828,0.175
916,1.383,0.169
917,1.3832,0.059
918,1.3834,0.167
919,1.3836,0.142
920,1.3838,0.124
921,1.384,0.106
922,1.3842,0.167
923,1.3844,0.13
924,1.3846,0.118
925,1.3848,-0.173
926,1.385,-0.981
927,1.3852,-1.133
928,1.3854,-0.855
929,1.3856,-0.807
930,1.3858,-0.334
931,1.386,0.229
932,1.3862,0.058
933,1.3864,0.096
934,1.3866,0.223
935,1.3868,0.088
936,1.387,0.1
937,1.3872,0.157
938,1.3874,0.188
939,1.3876,0.044
940,1.3878,0.178
941,1.388,0.159
942,1.3882,0.093
943,1.3884,0.148
944,1.3886,0.125
945,1.3888,0.155
946,1.389,0.102
